Sample	
Comments	
Filename	C:\DOCUME~1\Alunos\Desktop\F740B_1S2022_Grupo1\amostra_vidro2_00-30_002_17_03-05-22_22-29.raw
Goniometer	Miniflex goniometer
Attachment	Standard sample holder
Monochromater	None
ScanningMode	2Theta/Theta
ScanningType	Continuos Scanning
X-Ray	30kV/15mA
Divergence slit	Unknown
Scattering slit	4.2deg.
Receiving slit	0.3mm
Kb filter	
Start	0
Stop	30
Step	0.02
0	657
0.02	214
0.04	148
0.06	126
0.08	91
0.1	57
0.12	67
0.14	52
0.16	36
0.18	28
0.2	36
0.22	31
0.24	32
0.26	25
0.28	23
0.3	18
0.32	30
0.34	16
0.36	14
0.38	14
0.4	12
0.42	9
0.44	19
0.46	10
0.48	14
0.5	10
0.52	17
0.54	12
0.56	10
0.58	12
0.6	10
0.62	17
0.64	19
0.66	12
0.68	16
0.7	13
0.72	16
0.74	11
0.76	11
0.78	11
0.8	14
0.82	9
0.84	11
0.86	14
0.88	9
0.9	14
0.92	10
0.94	15
0.96	16
0.98	23
1	16
1.02	15
1.04	21
1.06	17
1.08	14
1.1	15
1.12	13
1.14	16
1.16	8
1.18	14
1.2	16
1.22	13
1.24	12
1.26	10
1.28	13
1.3	12
1.32	15
1.34	13
1.36	9
1.38	18
1.4	8
1.42	15
1.44	19
1.46	19
1.48	19
1.5	24
1.52	12
1.54	8
1.56	20
1.58	11
1.6	9
1.62	18
1.64	11
1.66	11
1.68	13
1.7	15
1.72	14
1.74	12
1.76	19
1.78	21
1.8	16
1.82	9
1.84	16
1.86	17
1.88	11
1.9	21
1.92	14
1.94	11
1.96	14
1.98	9
2	15
2.02	6
2.04	11
2.06	13
2.08	15
2.1	17
2.12	12
2.14	13
2.16	10
2.18	16
2.2	17
2.22	12
2.24	8
2.26	8
2.28	16
2.3	12
2.32	11
2.34	14
2.36	17
2.38	12
2.4	8
2.42	10
2.44	7
2.46	12
2.48	13
2.5	17
2.52	11
2.54	5
2.56	10
2.58	17
2.6	12
2.62	9
2.64	15
2.66	21
2.68	11
2.7	10
2.72	11
2.74	15
2.76	7
2.78	14
2.8	10
2.82	10
2.84	11
2.86	8
2.88	18
2.9	10
2.92	10
2.94	12
2.96	8
2.98	8
3	4
3.02	13
3.04	6
3.06	10
3.08	10
3.1	14
3.12	10
3.14	10
3.16	13
3.18	11
3.2	19
3.22	17
3.24	16
3.26	7
3.28	10
3.3	10
3.32	16
3.34	8
3.36	12
3.38	10
3.4	9
3.42	9
3.44	5
3.46	18
3.48	14
3.5	10
3.52	8
3.54	10
3.56	6
3.58	14
3.6	6
3.62	17
3.64	15
3.66	13
3.68	12
3.7	6
3.72	12
3.74	13
3.76	4
3.78	10
3.8	11
3.82	7
3.84	14
3.86	7
3.88	10
3.9	7
3.92	13
3.94	9
3.96	11
3.98	9
4	17
4.02	8
4.04	11
4.06	8
4.08	9
4.1	13
4.12	13
4.14	12
4.16	13
4.18	14
4.2	11
4.22	15
4.24	10
4.26	9
4.28	11
4.3	5
4.32	9
4.34	13
4.36	16
4.38	11
4.4	6
4.42	15
4.44	11
4.46	8
4.48	8
4.5	10
4.52	11
4.54	11
4.56	13
4.58	10
4.6	12
4.62	8
4.64	15
4.66	7
4.68	12
4.7	8
4.72	9
4.74	10
4.76	14
4.78	8
4.8	10
4.82	7
4.84	15
4.86	7
4.88	15
4.9	12
4.92	9
4.94	12
4.96	14
4.98	8
5	15
5.02	9
5.04	8
5.06	6
5.08	1
5.1	9
5.12	5
5.14	1
5.16	0
5.18	1
5.2	5
5.22	5
5.24	5
5.26	3
5.28	6
5.3	5
5.32	4
5.34	2
5.36	4
5.38	5
5.4	4
5.42	5
5.44	6
5.46	5
5.48	7
5.5	5
5.52	6
5.54	3
5.56	4
5.58	4
5.6	4
5.62	3
5.64	3
5.66	7
5.68	2
5.7	3
5.72	6
5.74	4
5.76	2
5.78	6
5.8	4
5.82	4
5.84	4
5.86	4
5.88	4
5.9	5
5.92	4
5.94	4
5.96	7
5.98	5
6	3
6.02	4
6.04	4
6.06	3
6.08	6
6.1	3
6.12	7
6.14	4
6.16	7
6.18	0
6.2	4
6.22	6
6.24	3
6.26	6
6.28	9
6.3	9
6.32	0
6.34	4
6.36	3
6.38	6
6.4	1
6.42	5
6.44	5
6.46	4
6.48	3
6.5	2
6.52	5
6.54	5
6.56	6
6.58	3
6.6	4
6.62	5
6.64	5
6.66	6
6.68	3
6.7	5
6.72	8
6.74	5
6.76	5
6.78	5
6.8	4
6.82	2
6.84	7
6.86	1
6.88	5
6.9	1
6.92	4
6.94	4
6.96	3
6.98	3
7	8
7.02	2
7.04	11
7.06	4
7.08	6
7.1	7
7.12	5
7.14	1
7.16	3
7.18	3
7.2	4
7.22	6
7.24	2
7.26	3
7.28	2
7.3	11
7.32	5
7.34	2
7.36	5
7.38	3
7.4	5
7.42	7
7.44	6
7.46	1
7.48	5
7.5	5
7.52	4
7.54	5
7.56	4
7.58	6
7.6	6
7.62	4
7.64	3
7.66	0
7.68	7
7.7	3
7.72	6
7.74	4
7.76	5
7.78	6
7.8	5
7.82	8
7.84	9
7.86	9
7.88	5
7.9	3
7.92	5
7.94	6
7.96	6
7.98	6
8	5
8.02	9
8.04	4
8.06	3
8.08	6
8.1	5
8.12	6
8.14	5
8.16	9
8.18	6
8.2	6
8.22	2
8.24	3
8.26	7
8.28	6
8.3	6
8.32	2
8.34	5
8.36	4
8.38	6
8.4	2
8.42	7
8.44	6
8.46	3
8.48	5
8.5	2
8.52	3
8.54	6
8.56	2
8.58	1
8.6	2
8.62	5
8.64	7
8.66	1
8.68	7
8.7	4
8.72	6
8.74	9
8.76	6
8.78	4
8.8	4
8.82	8
8.84	4
8.86	6
8.88	7
8.9	6
8.92	6
8.94	14
8.96	5
8.98	2
9	9
9.02	3
9.04	4
9.06	4
9.08	6
9.1	6
9.12	3
9.14	5
9.16	8
9.18	6
9.2	8
9.22	9
9.24	7
9.26	8
9.28	8
9.3	9
9.32	5
9.34	9
9.36	5
9.38	6
9.4	1
9.42	4
9.44	4
9.46	10
9.48	6
9.5	2
9.52	6
9.54	2
9.56	2
9.58	6
9.6	5
9.62	5
9.64	9
9.66	5
9.68	4
9.7	5
9.72	5
9.74	12
9.76	6
9.78	4
9.8	2
9.82	4
9.84	7
9.86	9
9.88	4
9.9	9
9.92	10
9.94	6
9.96	6
9.98	5
10	9
10.02	8
10.04	8
10.06	7
10.08	9
10.1	7
10.12	3
10.14	2
10.16	12
10.18	5
10.2	4
10.22	11
10.24	5
10.26	7
10.28	2
10.3	7
10.32	9
10.34	4
10.36	8
10.38	8
10.4	4
10.42	6
10.44	9
10.46	6
10.48	2
10.5	6
10.52	6
10.54	11
10.56	9
10.58	10
10.6	6
10.62	8
10.64	7
10.66	6
10.68	6
10.7	8
10.72	8
10.74	7
10.76	6
10.78	8
10.8	3
10.82	6
10.84	9
10.86	5
10.88	7
10.9	4
10.92	4
10.94	4
10.96	8
10.98	7
11	7
11.02	3
11.04	8
11.06	6
11.08	9
11.1	6
11.12	6
11.14	6
11.16	8
11.18	10
11.2	5
11.22	7
11.24	6
11.26	10
11.28	8
11.3	9
11.32	3
11.34	7
11.36	9
11.38	6
11.4	12
11.42	9
11.44	7
11.46	7
11.48	6
11.5	3
11.52	12
11.54	3
11.56	11
11.58	4
11.6	2
11.62	3
11.64	6
11.66	7
11.68	9
11.7	5
11.72	9
11.74	12
11.76	6
11.78	7
11.8	9
11.82	6
11.84	3
11.86	6
11.88	5
11.9	8
11.92	7
11.94	7
11.96	6
11.98	11
12	6
12.02	8
12.04	3
12.06	14
12.08	6
12.1	6
12.12	8
12.14	6
12.16	5
12.18	9
12.2	11
12.22	5
12.24	3
12.26	8
12.28	7
12.3	9
12.32	8
12.34	6
12.36	4
12.38	16
12.4	8
12.42	10
12.44	8
12.46	7
12.48	5
12.5	11
12.52	9
12.54	11
12.56	6
12.58	6
12.6	7
12.62	7
12.64	6
12.66	8
12.68	13
12.7	4
12.72	7
12.74	8
12.76	8
12.78	12
12.8	15
12.82	10
12.84	11
12.86	11
12.88	14
12.9	8
12.92	15
12.94	6
12.96	10
12.98	9
13	4
13.02	12
13.04	6
13.06	8
13.08	6
13.1	10
13.12	7
13.14	6
13.16	7
13.18	8
13.2	9
13.22	14
13.24	10
13.26	11
13.28	4
13.3	9
13.32	4
13.34	12
13.36	7
13.38	11
13.4	4
13.42	7
13.44	15
13.46	11
13.48	10
13.5	10
13.52	11
13.54	10
13.56	4
13.58	11
13.6	7
13.62	5
13.64	6
13.66	9
13.68	5
13.7	5
13.72	15
13.74	3
13.76	4
13.78	8
13.8	8
13.82	11
13.84	8
13.86	7
13.88	10
13.9	7
13.92	8
13.94	5
13.96	7
13.98	8
14	9
14.02	12
14.04	3
14.06	5
14.08	9
14.1	10
14.12	9
14.14	9
14.16	1
14.18	8
14.2	16
14.22	8
14.24	8
14.26	10
14.28	7
14.3	6
14.32	8
14.34	10
14.36	14
14.38	6
14.4	11
14.42	8
14.44	6
14.46	11
14.48	5
14.5	11
14.52	9
14.54	9
14.56	8
14.58	10
14.6	12
14.62	7
14.64	7
14.66	13
14.68	6
14.7	11
14.72	10
14.74	8
14.76	9
14.78	7
14.8	11
14.82	13
14.84	7
14.86	10
14.88	9
14.9	10
14.92	11
14.94	11
14.96	12
14.98	15
15	5
15.02	4
15.04	8
15.06	16
15.08	11
15.1	8
15.12	8
15.14	9
15.16	8
15.18	8
15.2	6
15.22	12
15.24	14
15.26	6
15.28	6
15.3	12
15.32	11
15.34	5
15.36	12
15.38	4
15.4	9
15.42	11
15.44	9
15.46	14
15.48	7
15.5	4
15.52	10
15.54	8
15.56	13
15.58	10
15.6	11
15.62	8
15.64	15
15.66	14
15.68	6
15.7	14
15.72	6
15.74	7
15.76	4
15.78	15
15.8	13
15.82	14
15.84	17
15.86	17
15.88	19
15.9	12
15.92	3
15.94	7
15.96	16
15.98	13
16	7
16.02	18
16.04	6
16.06	10
16.08	13
16.1	10
16.12	14
16.14	9
16.16	4
16.18	15
16.2	9
16.22	9
16.24	12
16.26	8
16.28	9
16.3	13
16.32	9
16.34	8
16.36	10
16.38	6
16.4	3
16.42	12
16.44	4
16.46	9
16.48	8
16.5	12
16.52	9
16.54	13
16.56	9
16.58	5
16.6	10
16.62	10
16.64	16
16.66	13
16.68	7
16.7	10
16.72	13
16.74	5
16.76	15
16.78	10
16.8	7
16.82	13
16.84	12
16.86	9
16.88	10
16.9	8
16.92	12
16.94	3
16.96	11
16.98	12
17	10
17.02	8
17.04	14
17.06	10
17.08	19
17.1	8
17.12	17
17.14	7
17.16	10
17.18	9
17.2	11
17.22	7
17.24	7
17.26	8
17.28	18
17.3	7
17.32	11
17.34	13
17.36	15
17.38	7
17.4	12
17.42	15
17.44	16
17.46	10
17.48	13
17.5	10
17.52	18
17.54	17
17.56	8
17.58	8
17.6	11
17.62	9
17.64	16
17.66	3
17.68	11
17.7	13
17.72	9
17.74	11
17.76	16
17.78	13
17.8	12
17.82	6
17.84	11
17.86	11
17.88	20
17.9	12
17.92	6
17.94	13
17.96	17
17.98	12
18	9
18.02	9
18.04	9
18.06	18
18.08	5
18.1	10
18.12	10
18.14	11
18.16	11
18.18	8
18.2	17
18.22	7
18.24	17
18.26	13
18.28	14
18.3	12
18.32	13
18.34	13
18.36	19
18.38	12
18.4	10
18.42	13
18.44	19
18.46	17
18.48	11
18.5	11
18.52	15
18.54	17
18.56	10
18.58	13
18.6	9
18.62	14
18.64	15
18.66	11
18.68	11
18.7	9
18.72	15
18.74	13
18.76	14
18.78	18
18.8	12
18.82	10
18.84	17
18.86	18
18.88	12
18.9	14
18.92	16
18.94	12
18.96	15
18.98	17
19	15
19.02	14
19.04	12
19.06	18
19.08	17
19.1	16
19.12	14
19.14	12
19.16	12
19.18	17
19.2	13
19.22	14
19.24	7
19.26	12
19.28	14
19.3	10
19.32	17
19.34	13
19.36	20
19.38	9
19.4	18
19.42	17
19.44	16
19.46	16
19.48	21
19.5	14
19.52	17
19.54	9
19.56	16
19.58	8
19.6	20
19.62	14
19.64	11
19.66	12
19.68	20
19.7	16
19.72	14
19.74	16
19.76	12
19.78	17
19.8	20
19.82	20
19.84	19
19.86	12
19.88	19
19.9	16
19.92	18
19.94	17
19.96	9
19.98	16
20	15
20.02	13
20.04	15
20.06	12
20.08	15
20.1	21
20.12	16
20.14	20
20.16	19
20.18	20
20.2	12
20.22	16
20.24	21
20.26	17
20.28	8
20.3	9
20.32	22
20.34	12
20.36	17
20.38	14
20.4	20
20.42	20
20.44	17
20.46	15
20.48	17
20.5	13
20.52	15
20.54	11
20.56	21
20.58	24
20.6	19
20.62	16
20.64	25
20.66	27
20.68	24
20.7	27
20.72	23
20.74	16
20.76	16
20.78	10
20.8	19
20.82	11
20.84	21
20.86	23
20.88	20
20.9	22
20.92	26
20.94	20
20.96	28
20.98	14
21	20
21.02	18
21.04	16
21.06	21
21.08	15
21.1	20
21.12	19
21.14	16
21.16	16
21.18	15
21.2	16
21.22	22
21.24	20
21.26	22
21.28	22
21.3	19
21.32	24
21.34	25
21.36	19
21.38	14
21.4	12
21.42	24
21.44	17
21.46	20
21.48	23
21.5	14
21.52	19
21.54	22
21.56	13
21.58	19
21.6	11
21.62	21
21.64	17
21.66	22
21.68	12
21.7	17
21.72	18
21.74	14
21.76	22
21.78	17
21.8	19
21.82	11
21.84	19
21.86	10
21.88	20
21.9	12
21.92	19
21.94	19
21.96	24
21.98	16
22	21
22.02	24
22.04	20
22.06	18
22.08	26
22.1	19
22.12	20
22.14	19
22.16	16
22.18	18
22.2	18
22.22	15
22.24	22
22.26	22
22.28	15
22.3	21
22.32	24
22.34	10
22.36	20
22.38	27
22.4	18
22.42	13
22.44	23
22.46	27
22.48	28
22.5	23
22.52	19
22.54	16
22.56	19
22.58	22
22.6	20
22.62	20
22.64	23
22.66	13
22.68	27
22.7	26
22.72	18
22.74	18
22.76	18
22.78	22
22.8	14
22.82	21
22.84	25
22.86	20
22.88	24
22.9	20
22.92	21
22.94	23
22.96	24
22.98	25
23	22
23.02	30
23.04	21
23.06	22
23.08	21
23.1	23
23.12	13
23.14	19
23.16	16
23.18	15
23.2	22
23.22	15
23.24	12
23.26	22
23.28	21
23.3	12
23.32	21
23.34	20
23.36	21
23.38	22
23.4	23
23.42	21
23.44	22
23.46	18
23.48	22
23.5	14
23.52	26
23.54	17
23.56	22
23.58	23
23.6	13
23.62	16
23.64	19
23.66	22
23.68	25
23.7	18
23.72	21
23.74	26
23.76	23
23.78	27
23.8	14
23.82	19
23.84	15
23.86	25
23.88	16
23.9	20
23.92	23
23.94	18
23.96	14
23.98	24
24	18
24.02	20
24.04	34
24.06	12
24.08	25
24.1	22
24.12	21
24.14	19
24.16	16
24.18	19
24.2	23
24.22	26
24.24	20
24.26	16
24.28	19
24.3	16
24.32	19
24.34	26
24.36	15
24.38	14
24.4	17
24.42	19
24.44	18
24.46	14
24.48	26
24.5	24
24.52	21
24.54	17
24.56	22
24.58	15
24.6	17
24.62	19
24.64	31
24.66	18
24.68	22
24.7	14
24.72	17
24.74	22
24.76	21
24.78	29
24.8	19
24.82	15
24.84	13
24.86	19
24.88	19
24.9	24
24.92	14
24.94	16
24.96	22
24.98	31
25	21
25.02	26
25.04	18
25.06	17
25.08	23
25.1	23
25.12	25
25.14	21
25.16	25
25.18	16
25.2	21
25.22	14
25.24	23
25.26	23
25.28	18
25.3	19
25.32	25
25.34	26
25.36	11
25.38	20
25.4	21
25.42	11
25.44	16
25.46	18
25.48	14
25.5	17
25.52	10
25.54	15
25.56	19
25.58	17
25.6	12
25.62	19
25.64	8
25.66	14
25.68	15
25.7	14
25.72	20
25.74	24
25.76	20
25.78	21
25.8	25
25.82	19
25.84	21
25.86	17
25.88	13
25.9	11
25.92	13
25.94	20
25.96	18
25.98	31
26	20
26.02	10
26.04	20
26.06	12
26.08	20
26.1	19
26.12	15
26.14	14
26.16	15
26.18	15
26.2	12
26.22	20
26.24	23
26.26	12
26.28	23
26.3	14
26.32	17
26.34	13
26.36	14
26.38	19
26.4	15
26.42	11
26.44	23
26.46	16
26.48	19
26.5	19
26.52	13
26.54	18
26.56	12
26.58	19
26.6	18
26.62	11
26.64	26
26.66	12
26.68	22
26.7	18
26.72	12
26.74	10
26.76	17
26.78	22
26.8	18
26.82	17
26.84	19
26.86	27
26.88	17
26.9	20
26.92	15
26.94	15
26.96	17
26.98	21
27	19
27.02	17
27.04	13
27.06	12
27.08	17
27.1	17
27.12	15
27.14	17
27.16	17
27.18	20
27.2	18
27.22	22
27.24	18
27.26	10
27.28	13
27.3	15
27.32	14
27.34	16
27.36	19
27.38	11
27.4	24
27.42	16
27.44	19
27.46	14
27.48	16
27.5	15
27.52	20
27.54	14
27.56	9
27.58	17
27.6	23
27.62	10
27.64	15
27.66	18
27.68	19
27.7	18
27.72	20
27.74	12
27.76	17
27.78	19
27.8	12
27.82	12
27.84	15
27.86	15
27.88	11
27.9	17
27.92	16
27.94	9
27.96	17
27.98	9
28	11
28.02	17
28.04	12
28.06	13
28.08	15
28.1	14
28.12	16
28.14	24
28.16	11
28.18	14
28.2	20
28.22	14
28.24	12
28.26	21
28.28	19
28.3	8
28.32	18
28.34	14
28.36	6
28.38	11
28.4	19
28.42	14
28.44	15
28.46	16
28.48	15
28.5	18
28.52	11
28.54	24
28.56	11
28.58	17
28.6	12
28.62	16
28.64	17
28.66	23
28.68	13
28.7	14
28.72	20
28.74	14
28.76	13
28.78	15
28.8	10
28.82	22
28.84	14
28.86	13
28.88	17
28.9	13
28.92	18
28.94	13
28.96	23
28.98	13
29	9
29.02	19
29.04	17
29.06	15
29.08	18
29.1	14
29.12	10
29.14	13
29.16	18
29.18	6
29.2	18
29.22	14
29.24	19
29.26	15
29.28	12
29.3	15
29.32	10
29.34	18
29.36	11
29.38	19
29.4	10
29.42	14
29.44	8
29.46	13
29.48	19
29.5	16
29.52	12
29.54	15
29.56	18
29.58	12
29.6	17
29.62	17
29.64	14
29.66	11
29.68	11
29.7	8
29.72	11
29.74	19
29.76	9
29.78	16
29.8	10
29.82	17
29.84	11
29.86	16
29.88	21
29.9	13
29.92	12
29.94	13
29.96	13
29.98	18
30	11
