Sample	
Comments	
Filename	C:\DOCUME~1\Alunos\Desktop\F740B_1S2022_Grupo1\amostra6_30-120_002_17_26-04-22_21-46.raw
Goniometer	Miniflex goniometer
Attachment	Standard sample holder
Monochromater	None
ScanningMode	2Theta/Theta
ScanningType	Continuos Scanning
X-Ray	30kV/15mA
Divergence slit	Unknown
Scattering slit	4.2deg.
Receiving slit	0.3mm
Kb filter	
Start	30
Stop	120
Step	0.02
30	7
30.02	6
30.04	12
30.06	8
30.08	4
30.1	10
30.12	12
30.14	7
30.16	16
30.18	8
30.2	12
30.22	16
30.24	20
30.26	10
30.28	12
30.3	7
30.32	5
30.34	12
30.36	10
30.38	9
30.4	12
30.42	13
30.44	12
30.46	6
30.48	9
30.5	14
30.52	8
30.54	11
30.56	10
30.58	12
30.6	18
30.62	4
30.64	14
30.66	14
30.68	14
30.7	13
30.72	13
30.74	12
30.76	8
30.78	6
30.8	12
30.82	14
30.84	10
30.86	15
30.88	8
30.9	12
30.92	19
30.94	17
30.96	11
30.98	9
31	16
31.02	15
31.04	10
31.06	9
31.08	9
31.1	13
31.12	10
31.14	9
31.16	21
31.18	8
31.2	15
31.22	9
31.24	17
31.26	7
31.28	7
31.3	9
31.32	12
31.34	12
31.36	9
31.38	5
31.4	9
31.42	12
31.44	9
31.46	3
31.48	10
31.5	9
31.52	11
31.54	11
31.56	10
31.58	17
31.6	10
31.62	8
31.64	11
31.66	11
31.68	4
31.7	11
31.72	10
31.74	8
31.76	9
31.78	7
31.8	13
31.82	7
31.84	13
31.86	7
31.88	7
31.9	13
31.92	8
31.94	6
31.96	6
31.98	8
32	13
32.02	12
32.04	13
32.06	16
32.08	7
32.1	17
32.12	5
32.14	9
32.16	13
32.18	14
32.2	8
32.22	18
32.24	15
32.26	13
32.28	13
32.3	7
32.32	10
32.34	13
32.36	11
32.38	10
32.4	9
32.42	13
32.44	15
32.46	17
32.48	12
32.5	17
32.52	14
32.54	10
32.56	13
32.58	11
32.6	16
32.62	8
32.64	14
32.66	11
32.68	11
32.7	8
32.72	17
32.74	13
32.76	9
32.78	13
32.8	12
32.82	9
32.84	6
32.86	11
32.88	8
32.9	13
32.92	9
32.94	6
32.96	9
32.98	12
33	13
33.02	13
33.04	11
33.06	12
33.08	16
33.1	8
33.12	12
33.14	11
33.16	12
33.18	13
33.2	12
33.22	16
33.24	9
33.26	10
33.28	5
33.3	5
33.32	15
33.34	13
33.36	11
33.38	19
33.4	11
33.42	16
33.44	15
33.46	17
33.48	10
33.5	12
33.52	10
33.54	7
33.56	6
33.58	6
33.6	11
33.62	11
33.64	5
33.66	7
33.68	12
33.7	12
33.72	15
33.74	10
33.76	17
33.78	14
33.8	13
33.82	13
33.84	15
33.86	13
33.88	6
33.9	12
33.92	10
33.94	21
33.96	10
33.98	13
34	17
34.02	11
34.04	16
34.06	17
34.08	13
34.1	14
34.12	15
34.14	12
34.16	13
34.18	10
34.2	4
34.22	16
34.24	11
34.26	12
34.28	9
34.3	12
34.32	16
34.34	8
34.36	14
34.38	10
34.4	13
34.42	13
34.44	11
34.46	12
34.48	15
34.5	8
34.52	8
34.54	11
34.56	15
34.58	7
34.6	9
34.62	12
34.64	7
34.66	14
34.68	5
34.7	4
34.72	18
34.74	13
34.76	10
34.78	9
34.8	9
34.82	11
34.84	13
34.86	8
34.88	6
34.9	10
34.92	9
34.94	15
34.96	11
34.98	7
35	13
35.02	13
35.04	7
35.06	11
35.08	9
35.1	13
35.12	14
35.14	14
35.16	8
35.18	11
35.2	10
35.22	12
35.24	14
35.26	10
35.28	8
35.3	14
35.32	9
35.34	19
35.36	13
35.38	12
35.4	12
35.42	12
35.44	9
35.46	9
35.48	11
35.5	12
35.52	9
35.54	12
35.56	10
35.58	5
35.6	10
35.62	12
35.64	10
35.66	5
35.68	12
35.7	7
35.72	10
35.74	9
35.76	13
35.78	8
35.8	9
35.82	14
35.84	11
35.86	8
35.88	12
35.9	8
35.92	18
35.94	7
35.96	11
35.98	15
36	8
36.02	10
36.04	9
36.06	12
36.08	11
36.1	6
36.12	7
36.14	8
36.16	5
36.18	16
36.2	14
36.22	10
36.24	10
36.26	10
36.28	7
36.3	5
36.32	10
36.34	13
36.36	16
36.38	18
36.4	7
36.42	6
36.44	7
36.46	5
36.48	8
36.5	9
36.52	13
36.54	13
36.56	10
36.58	12
36.6	12
36.62	13
36.64	10
36.66	10
36.68	12
36.7	12
36.72	15
36.74	7
36.76	5
36.78	8
36.8	13
36.82	16
36.84	13
36.86	9
36.88	17
36.9	11
36.92	6
36.94	6
36.96	9
36.98	8
37	18
37.02	16
37.04	10
37.06	5
37.08	8
37.1	10
37.12	6
37.14	10
37.16	12
37.18	6
37.2	10
37.22	11
37.24	10
37.26	9
37.28	12
37.3	16
37.32	8
37.34	8
37.36	11
37.38	13
37.4	11
37.42	7
37.44	10
37.46	11
37.48	16
37.5	8
37.52	10
37.54	9
37.56	11
37.58	10
37.6	7
37.62	8
37.64	13
37.66	14
37.68	14
37.7	9
37.72	14
37.74	12
37.76	6
37.78	12
37.8	15
37.82	5
37.84	10
37.86	11
37.88	10
37.9	11
37.92	9
37.94	10
37.96	6
37.98	12
38	6
38.02	10
38.04	12
38.06	12
38.08	11
38.1	9
38.12	8
38.14	13
38.16	11
38.18	14
38.2	7
38.22	10
38.24	9
38.26	14
38.28	21
38.3	8
38.32	14
38.34	11
38.36	6
38.38	11
38.4	11
38.42	12
38.44	11
38.46	14
38.48	12
38.5	8
38.52	14
38.54	11
38.56	5
38.58	15
38.6	11
38.62	14
38.64	14
38.66	12
38.68	4
38.7	6
38.72	14
38.74	12
38.76	6
38.78	8
38.8	7
38.82	8
38.84	7
38.86	13
38.88	11
38.9	15
38.92	8
38.94	13
38.96	8
38.98	8
39	9
39.02	8
39.04	15
39.06	8
39.08	11
39.1	10
39.12	8
39.14	25
39.16	5
39.18	12
39.2	12
39.22	12
39.24	13
39.26	15
39.28	12
39.3	14
39.32	16
39.34	9
39.36	9
39.38	8
39.4	11
39.42	9
39.44	14
39.46	15
39.48	13
39.5	8
39.52	9
39.54	5
39.56	12
39.58	11
39.6	13
39.62	11
39.64	12
39.66	15
39.68	11
39.7	11
39.72	12
39.74	15
39.76	15
39.78	4
39.8	13
39.82	9
39.84	15
39.86	9
39.88	11
39.9	13
39.92	8
39.94	10
39.96	8
39.98	15
40	19
40.02	13
40.04	10
40.06	12
40.08	11
40.1	21
40.12	9
40.14	9
40.16	4
40.18	6
40.2	15
40.22	14
40.24	14
40.26	16
40.28	15
40.3	12
40.32	11
40.34	13
40.36	10
40.38	17
40.4	18
40.42	24
40.44	15
40.46	20
40.48	15
40.5	15
40.52	20
40.54	23
40.56	24
40.58	29
40.6	26
40.62	28
40.64	34
40.66	40
40.68	56
40.7	38
40.72	68
40.74	58
40.76	57
40.78	78
40.8	93
40.82	91
40.84	102
40.86	104
40.88	103
40.9	104
40.92	112
40.94	99
40.96	109
40.98	88
41	81
41.02	82
41.04	60
41.06	75
41.08	65
41.1	49
41.12	45
41.14	27
41.16	38
41.18	19
41.2	24
41.22	22
41.24	22
41.26	23
41.28	15
41.3	18
41.32	22
41.34	18
41.36	17
41.38	14
41.4	11
41.42	16
41.44	14
41.46	12
41.48	12
41.5	11
41.52	14
41.54	12
41.56	10
41.58	12
41.6	16
41.62	10
41.64	11
41.66	15
41.68	8
41.7	9
41.72	12
41.74	10
41.76	10
41.78	7
41.8	9
41.82	17
41.84	9
41.86	17
41.88	17
41.9	12
41.92	13
41.94	17
41.96	12
41.98	10
42	10
42.02	12
42.04	5
42.06	12
42.08	11
42.1	15
42.12	9
42.14	16
42.16	11
42.18	8
42.2	16
42.22	10
42.24	15
42.26	15
42.28	15
42.3	15
42.32	8
42.34	11
42.36	11
42.38	6
42.4	14
42.42	9
42.44	12
42.46	10
42.48	23
42.5	9
42.52	13
42.54	9
42.56	9
42.58	19
42.6	6
42.62	13
42.64	9
42.66	9
42.68	12
42.7	8
42.72	15
42.74	9
42.76	13
42.78	12
42.8	13
42.82	8
42.84	8
42.86	11
42.88	7
42.9	17
42.92	9
42.94	10
42.96	12
42.98	14
43	9
43.02	7
43.04	11
43.06	12
43.08	13
43.1	8
43.12	8
43.14	14
43.16	16
43.18	14
43.2	11
43.22	8
43.24	13
43.26	5
43.28	9
43.3	8
43.32	19
43.34	10
43.36	13
43.38	7
43.4	11
43.42	15
43.44	11
43.46	11
43.48	10
43.5	5
43.52	11
43.54	5
43.56	15
43.58	12
43.6	9
43.62	14
43.64	12
43.66	6
43.68	9
43.7	12
43.72	9
43.74	15
43.76	9
43.78	18
43.8	14
43.82	8
43.84	13
43.86	11
43.88	12
43.9	14
43.92	9
43.94	7
43.96	3
43.98	10
44	14
44.02	10
44.04	7
44.06	19
44.08	9
44.1	6
44.12	8
44.14	8
44.16	5
44.18	10
44.2	8
44.22	8
44.24	14
44.26	13
44.28	12
44.3	11
44.32	6
44.34	19
44.36	13
44.38	8
44.4	5
44.42	10
44.44	7
44.46	10
44.48	10
44.5	9
44.52	9
44.54	13
44.56	12
44.58	15
44.6	5
44.62	13
44.64	10
44.66	12
44.68	13
44.7	11
44.72	14
44.74	6
44.76	10
44.78	18
44.8	10
44.82	10
44.84	10
44.86	9
44.88	8
44.9	8
44.92	7
44.94	7
44.96	4
44.98	16
45	9
45.02	7
45.04	5
45.06	10
45.08	8
45.1	11
45.12	15
45.14	11
45.16	11
45.18	7
45.2	13
45.22	9
45.24	11
45.26	10
45.28	9
45.3	15
45.32	8
45.34	3
45.36	4
45.38	8
45.4	10
45.42	13
45.44	7
45.46	11
45.48	11
45.5	9
45.52	8
45.54	14
45.56	10
45.58	8
45.6	7
45.62	10
45.64	11
45.66	3
45.68	13
45.7	10
45.72	10
45.74	8
45.76	12
45.78	7
45.8	7
45.82	4
45.84	14
45.86	13
45.88	6
45.9	15
45.92	10
45.94	14
45.96	13
45.98	8
46	9
46.02	14
46.04	7
46.06	7
46.08	5
46.1	15
46.12	5
46.14	8
46.16	13
46.18	9
46.2	11
46.22	8
46.24	12
46.26	9
46.28	15
46.3	9
46.32	9
46.34	11
46.36	9
46.38	6
46.4	13
46.42	13
46.44	8
46.46	15
46.48	8
46.5	11
46.52	5
46.54	11
46.56	6
46.58	8
46.6	13
46.62	17
46.64	12
46.66	6
46.68	10
46.7	14
46.72	6
46.74	6
46.76	10
46.78	10
46.8	8
46.82	11
46.84	6
46.86	6
46.88	13
46.9	10
46.92	8
46.94	18
46.96	5
46.98	11
47	11
47.02	8
47.04	13
47.06	15
47.08	18
47.1	12
47.12	10
47.14	22
47.16	8
47.18	11
47.2	14
47.22	10
47.24	12
47.26	12
47.28	13
47.3	8
47.32	6
47.34	8
47.36	14
47.38	14
47.4	10
47.42	7
47.44	10
47.46	12
47.48	12
47.5	6
47.52	11
47.54	11
47.56	12
47.58	14
47.6	8
47.62	12
47.64	6
47.66	13
47.68	7
47.7	21
47.72	6
47.74	15
47.76	12
47.78	15
47.8	10
47.82	8
47.84	7
47.86	16
47.88	21
47.9	10
47.92	5
47.94	10
47.96	9
47.98	18
48	10
48.02	13
48.04	9
48.06	12
48.08	10
48.1	9
48.12	13
48.14	9
48.16	9
48.18	13
48.2	13
48.22	10
48.24	5
48.26	7
48.28	12
48.3	10
48.32	12
48.34	8
48.36	12
48.38	15
48.4	6
48.42	13
48.44	8
48.46	13
48.48	8
48.5	11
48.52	16
48.54	11
48.56	10
48.58	10
48.6	12
48.62	12
48.64	15
48.66	10
48.68	7
48.7	8
48.72	15
48.74	8
48.76	16
48.78	14
48.8	11
48.82	10
48.84	9
48.86	10
48.88	10
48.9	12
48.92	8
48.94	11
48.96	12
48.98	12
49	7
49.02	10
49.04	9
49.06	13
49.08	11
49.1	11
49.12	12
49.14	10
49.16	10
49.18	8
49.2	7
49.22	12
49.24	17
49.26	7
49.28	4
49.3	10
49.32	7
49.34	12
49.36	9
49.38	6
49.4	7
49.42	10
49.44	13
49.46	14
49.48	13
49.5	6
49.52	12
49.54	11
49.56	11
49.58	10
49.6	11
49.62	10
49.64	5
49.66	4
49.68	8
49.7	12
49.72	14
49.74	8
49.76	12
49.78	16
49.8	12
49.82	11
49.84	14
49.86	7
49.88	4
49.9	9
49.92	11
49.94	19
49.96	16
49.98	8
50	12
50.02	8
50.04	11
50.06	11
50.08	5
50.1	8
50.12	15
50.14	12
50.16	11
50.18	3
50.2	7
50.22	10
50.24	10
50.26	15
50.28	9
50.3	16
50.32	10
50.34	14
50.36	9
50.38	10
50.4	12
50.42	7
50.44	14
50.46	11
50.48	15
50.5	10
50.52	14
50.54	8
50.56	14
50.58	18
50.6	10
50.62	10
50.64	13
50.66	9
50.68	11
50.7	10
50.72	10
50.74	18
50.76	5
50.78	16
50.8	12
50.82	17
50.84	12
50.86	10
50.88	11
50.9	12
50.92	10
50.94	6
50.96	7
50.98	7
51	14
51.02	10
51.04	10
51.06	9
51.08	9
51.1	9
51.12	8
51.14	12
51.16	11
51.18	12
51.2	5
51.22	12
51.24	16
51.26	12
51.28	11
51.3	9
51.32	17
51.34	13
51.36	10
51.38	11
51.4	11
51.42	6
51.44	13
51.46	11
51.48	11
51.5	14
51.52	12
51.54	9
51.56	12
51.58	11
51.6	13
51.62	16
51.64	8
51.66	6
51.68	7
51.7	16
51.72	12
51.74	9
51.76	14
51.78	11
51.8	11
51.82	9
51.84	15
51.86	10
51.88	9
51.9	11
51.92	4
51.94	11
51.96	5
51.98	9
52	14
52.02	14
52.04	12
52.06	11
52.08	11
52.1	17
52.12	13
52.14	8
52.16	11
52.18	8
52.2	7
52.22	7
52.24	15
52.26	9
52.28	5
52.3	7
52.32	13
52.34	8
52.36	11
52.38	9
52.4	11
52.42	7
52.44	13
52.46	9
52.48	10
52.5	8
52.52	7
52.54	17
52.56	10
52.58	10
52.6	9
52.62	6
52.64	16
52.66	8
52.68	10
52.7	13
52.72	9
52.74	20
52.76	12
52.78	15
52.8	4
52.82	8
52.84	6
52.86	19
52.88	12
52.9	11
52.92	12
52.94	14
52.96	19
52.98	15
53	12
53.02	17
53.04	10
53.06	14
53.08	15
53.1	7
53.12	20
53.14	10
53.16	14
53.18	14
53.2	10
53.22	13
53.24	5
53.26	11
53.28	13
53.3	14
53.32	9
53.34	12
53.36	7
53.38	6
53.4	13
53.42	14
53.44	13
53.46	7
53.48	11
53.5	13
53.52	8
53.54	12
53.56	11
53.58	15
53.6	11
53.62	10
53.64	7
53.66	15
53.68	9
53.7	10
53.72	17
53.74	7
53.76	12
53.78	14
53.8	16
53.82	8
53.84	11
53.86	14
53.88	6
53.9	18
53.92	9
53.94	9
53.96	11
53.98	15
54	11
54.02	17
54.04	8
54.06	8
54.08	5
54.1	12
54.12	13
54.14	12
54.16	7
54.18	11
54.2	9
54.22	12
54.24	11
54.26	11
54.28	9
54.3	14
54.32	6
54.34	5
54.36	4
54.38	13
54.4	11
54.42	18
54.44	8
54.46	8
54.48	13
54.5	7
54.52	11
54.54	13
54.56	7
54.58	8
54.6	10
54.62	11
54.64	16
54.66	12
54.68	9
54.7	8
54.72	8
54.74	7
54.76	12
54.78	15
54.8	7
54.82	11
54.84	10
54.86	10
54.88	11
54.9	11
54.92	16
54.94	8
54.96	11
54.98	13
55	12
55.02	8
55.04	12
55.06	11
55.08	15
55.1	10
55.12	18
55.14	10
55.16	8
55.18	12
55.2	13
55.22	9
55.24	11
55.26	5
55.28	14
55.3	19
55.32	13
55.34	19
55.36	9
55.38	10
55.4	10
55.42	12
55.44	10
55.46	5
55.48	17
55.5	6
55.52	4
55.54	10
55.56	10
55.58	9
55.6	13
55.62	11
55.64	17
55.66	15
55.68	10
55.7	12
55.72	7
55.74	13
55.76	9
55.78	10
55.8	10
55.82	10
55.84	17
55.86	12
55.88	12
55.9	10
55.92	11
55.94	11
55.96	3
55.98	12
56	11
56.02	12
56.04	11
56.06	15
56.08	8
56.1	12
56.12	15
56.14	10
56.16	8
56.18	9
56.2	9
56.22	6
56.24	13
56.26	9
56.28	9
56.3	6
56.32	9
56.34	12
56.36	10
56.38	10
56.4	10
56.42	15
56.44	14
56.46	12
56.48	16
56.5	6
56.52	17
56.54	19
56.56	10
56.58	10
56.6	7
56.62	12
56.64	16
56.66	19
56.68	13
56.7	10
56.72	19
56.74	10
56.76	10
56.78	11
56.8	9
56.82	14
56.84	13
56.86	8
56.88	18
56.9	13
56.92	13
56.94	17
56.96	12
56.98	18
57	12
57.02	16
57.04	14
57.06	9
57.08	10
57.1	11
57.12	11
57.14	12
57.16	10
57.18	15
57.2	22
57.22	14
57.24	11
57.26	12
57.28	14
57.3	13
57.32	13
57.34	14
57.36	11
57.38	15
57.4	15
57.42	9
57.44	9
57.46	22
57.48	16
57.5	7
57.52	16
57.54	24
57.56	17
57.58	6
57.6	18
57.62	20
57.64	19
57.66	10
57.68	15
57.7	16
57.72	11
57.74	10
57.76	18
57.78	14
57.8	15
57.82	13
57.84	16
57.86	16
57.88	7
57.9	13
57.92	11
57.94	11
57.96	14
57.98	21
58	8
58.02	11
58.04	11
58.06	12
58.08	13
58.1	16
58.12	15
58.14	13
58.16	11
58.18	14
58.2	18
58.22	15
58.24	17
58.26	14
58.28	25
58.3	14
58.32	25
58.34	16
58.36	18
58.38	13
58.4	17
58.42	18
58.44	18
58.46	17
58.48	27
58.5	21
58.52	28
58.54	17
58.56	36
58.58	40
58.6	27
58.62	36
58.64	37
58.66	32
58.68	52
58.7	55
58.72	67
58.74	66
58.76	76
58.78	112
58.8	123
58.82	171
58.84	183
58.86	250
58.88	259
58.9	295
58.92	366
58.94	349
58.96	442
58.98	446
59	565
59.02	583
59.04	698
59.06	752
59.08	720
59.1	708
59.12	622
59.14	517
59.16	449
59.18	401
59.2	359
59.22	382
59.24	312
59.26	275
59.28	227
59.3	188
59.32	160
59.34	111
59.36	80
59.38	66
59.4	48
59.42	47
59.44	32
59.46	25
59.48	27
59.5	30
59.52	30
59.54	24
59.56	24
59.58	32
59.6	23
59.62	26
59.64	21
59.66	17
59.68	24
59.7	18
59.72	15
59.74	16
59.76	19
59.78	17
59.8	15
59.82	19
59.84	14
59.86	14
59.88	18
59.9	16
59.92	21
59.94	22
59.96	36
59.98	16
60	11
60.02	17
60.04	12
60.06	17
60.08	18
60.1	14
60.12	16
60.14	9
60.16	13
60.18	13
60.2	20
60.22	9
60.24	13
60.26	13
60.28	17
60.3	16
60.32	15
60.34	10
60.36	20
60.38	15
60.4	10
60.42	15
60.44	18
60.46	12
60.48	15
60.5	19
60.52	15
60.54	14
60.56	19
60.58	18
60.6	20
60.62	12
60.64	16
60.66	21
60.68	15
60.7	17
60.72	15
60.74	10
60.76	11
60.78	10
60.8	15
60.82	10
60.84	23
60.86	13
60.88	18
60.9	8
60.92	9
60.94	12
60.96	14
60.98	15
61	19
61.02	20
61.04	14
61.06	11
61.08	12
61.1	19
61.12	15
61.14	14
61.16	6
61.18	11
61.2	10
61.22	13
61.24	11
61.26	18
61.28	16
61.3	14
61.32	20
61.34	9
61.36	12
61.38	14
61.4	18
61.42	15
61.44	9
61.46	12
61.48	12
61.5	11
61.52	11
61.54	20
61.56	19
61.58	17
61.6	16
61.62	14
61.64	14
61.66	15
61.68	14
61.7	8
61.72	12
61.74	7
61.76	9
61.78	11
61.8	10
61.82	12
61.84	14
61.86	9
61.88	14
61.9	9
61.92	15
61.94	21
61.96	13
61.98	12
62	13
62.02	13
62.04	20
62.06	15
62.08	15
62.1	14
62.12	13
62.14	10
62.16	17
62.18	11
62.2	14
62.22	16
62.24	13
62.26	10
62.28	10
62.3	21
62.32	20
62.34	19
62.36	14
62.38	12
62.4	11
62.42	8
62.44	12
62.46	11
62.48	16
62.5	14
62.52	22
62.54	6
62.56	8
62.58	18
62.6	15
62.62	17
62.64	12
62.66	10
62.68	7
62.7	9
62.72	6
62.74	17
62.76	8
62.78	13
62.8	13
62.82	14
62.84	14
62.86	10
62.88	10
62.9	14
62.92	11
62.94	10
62.96	9
62.98	13
63	12
63.02	7
63.04	13
63.06	9
63.08	18
63.1	15
63.12	20
63.14	13
63.16	9
63.18	20
63.2	14
63.22	12
63.24	12
63.26	14
63.28	17
63.3	13
63.32	17
63.34	14
63.36	14
63.38	15
63.4	12
63.42	13
63.44	14
63.46	12
63.48	6
63.5	13
63.52	13
63.54	22
63.56	15
63.58	13
63.6	16
63.62	12
63.64	13
63.66	13
63.68	12
63.7	16
63.72	18
63.74	15
63.76	19
63.78	15
63.8	14
63.82	14
63.84	15
63.86	10
63.88	20
63.9	19
63.92	10
63.94	12
63.96	8
63.98	10
64	19
64.02	11
64.04	13
64.06	12
64.08	11
64.1	11
64.12	8
64.14	12
64.16	10
64.18	11
64.2	9
64.22	7
64.24	12
64.26	8
64.28	12
64.3	16
64.32	11
64.34	8
64.36	14
64.38	19
64.4	14
64.42	15
64.44	14
64.46	11
64.48	9
64.5	9
64.52	11
64.54	19
64.56	10
64.58	15
64.6	16
64.62	11
64.64	22
64.66	9
64.68	7
64.7	20
64.72	14
64.74	9
64.76	3
64.78	9
64.8	16
64.82	8
64.84	16
64.86	12
64.88	20
64.9	16
64.92	8
64.94	9
64.96	10
64.98	17
65	11
65.02	14
65.04	12
65.06	18
65.08	16
65.1	15
65.12	16
65.14	12
65.16	14
65.18	18
65.2	18
65.22	11
65.24	14
65.26	11
65.28	13
65.3	17
65.32	16
65.34	11
65.36	16
65.38	12
65.4	12
65.42	8
65.44	11
65.46	6
65.48	17
65.5	20
65.52	11
65.54	11
65.56	10
65.58	15
65.6	6
65.62	14
65.64	10
65.66	11
65.68	12
65.7	7
65.72	20
65.74	11
65.76	11
65.78	8
65.8	18
65.82	5
65.84	13
65.86	10
65.88	15
65.9	14
65.92	13
65.94	11
65.96	11
65.98	17
66	14
66.02	9
66.04	13
66.06	11
66.08	14
66.1	11
66.12	11
66.14	13
66.16	14
66.18	21
66.2	17
66.22	14
66.24	9
66.26	13
66.28	10
66.3	14
66.32	18
66.34	8
66.36	15
66.38	13
66.4	16
66.42	11
66.44	6
66.46	12
66.48	10
66.5	9
66.52	12
66.54	17
66.56	7
66.58	10
66.6	20
66.62	9
66.64	13
66.66	16
66.68	16
66.7	11
66.72	12
66.74	21
66.76	15
66.78	13
66.8	11
66.82	11
66.84	17
66.86	13
66.88	8
66.9	18
66.92	12
66.94	13
66.96	13
66.98	7
67	13
67.02	16
67.04	10
67.06	9
67.08	15
67.1	10
67.12	13
67.14	15
67.16	10
67.18	8
67.2	10
67.22	16
67.24	13
67.26	13
67.28	9
67.3	15
67.32	9
67.34	10
67.36	7
67.38	10
67.4	13
67.42	17
67.44	22
67.46	17
67.48	13
67.5	14
67.52	15
67.54	15
67.56	11
67.58	11
67.6	9
67.62	17
67.64	12
67.66	5
67.68	12
67.7	18
67.72	14
67.74	15
67.76	21
67.78	15
67.8	16
67.82	15
67.84	18
67.86	14
67.88	15
67.9	23
67.92	9
67.94	18
67.96	17
67.98	15
68	17
68.02	10
68.04	10
68.06	11
68.08	19
68.1	9
68.12	12
68.14	10
68.16	9
68.18	11
68.2	12
68.22	10
68.24	14
68.26	16
68.28	9
68.3	16
68.32	8
68.34	22
68.36	14
68.38	14
68.4	11
68.42	13
68.44	16
68.46	19
68.48	15
68.5	17
68.52	15
68.54	10
68.56	13
68.58	8
68.6	13
68.62	12
68.64	12
68.66	9
68.68	10
68.7	14
68.72	11
68.74	8
68.76	16
68.78	11
68.8	9
68.82	7
68.84	15
68.86	13
68.88	14
68.9	12
68.92	23
68.94	13
68.96	17
68.98	8
69	13
69.02	14
69.04	14
69.06	11
69.08	11
69.1	10
69.12	11
69.14	9
69.16	18
69.18	18
69.2	11
69.22	12
69.24	13
69.26	9
69.28	11
69.3	10
69.32	14
69.34	6
69.36	11
69.38	14
69.4	14
69.42	14
69.44	6
69.46	10
69.48	14
69.5	15
69.52	9
69.54	13
69.56	10
69.58	7
69.6	16
69.62	21
69.64	18
69.66	15
69.68	8
69.7	9
69.72	7
69.74	8
69.76	17
69.78	17
69.8	15
69.82	11
69.84	11
69.86	9
69.88	14
69.9	7
69.92	8
69.94	11
69.96	12
69.98	18
70	12
70.02	13
70.04	11
70.06	20
70.08	17
70.1	9
70.12	11
70.14	13
70.16	13
70.18	19
70.2	9
70.22	19
70.24	5
70.26	12
70.28	13
70.3	5
70.32	21
70.34	21
70.36	13
70.38	17
70.4	14
70.42	14
70.44	16
70.46	12
70.48	17
70.5	9
70.52	16
70.54	13
70.56	15
70.58	19
70.6	16
70.62	21
70.64	13
70.66	13
70.68	9
70.7	12
70.72	7
70.74	14
70.76	20
70.78	14
70.8	15
70.82	26
70.84	11
70.86	16
70.88	18
70.9	13
70.92	21
70.94	12
70.96	16
70.98	10
71	13
71.02	7
71.04	15
71.06	21
71.08	19
71.1	13
71.12	13
71.14	11
71.16	10
71.18	17
71.2	15
71.22	17
71.24	9
71.26	16
71.28	14
71.3	13
71.32	20
71.34	15
71.36	11
71.38	11
71.4	16
71.42	13
71.44	14
71.46	17
71.48	22
71.5	10
71.52	15
71.54	14
71.56	11
71.58	14
71.6	12
71.62	11
71.64	15
71.66	19
71.68	11
71.7	14
71.72	12
71.74	12
71.76	15
71.78	12
71.8	8
71.82	13
71.84	15
71.86	16
71.88	14
71.9	16
71.92	18
71.94	9
71.96	22
71.98	11
72	10
72.02	14
72.04	14
72.06	17
72.08	11
72.1	13
72.12	21
72.14	7
72.16	13
72.18	12
72.2	15
72.22	19
72.24	16
72.26	13
72.28	17
72.3	9
72.32	11
72.34	11
72.36	15
72.38	15
72.4	9
72.42	12
72.44	14
72.46	13
72.48	15
72.5	13
72.52	14
72.54	7
72.56	22
72.58	16
72.6	20
72.62	22
72.64	10
72.66	9
72.68	15
72.7	19
72.72	7
72.74	17
72.76	19
72.78	14
72.8	13
72.82	17
72.84	15
72.86	12
72.88	9
72.9	9
72.92	14
72.94	13
72.96	16
72.98	16
73	24
73.02	13
73.04	15
73.06	13
73.08	22
73.1	21
73.12	18
73.14	17
73.16	15
73.18	14
73.2	21
73.22	15
73.24	14
73.26	19
73.28	17
73.3	14
73.32	16
73.34	20
73.36	15
73.38	19
73.4	21
73.42	16
73.44	14
73.46	19
73.48	27
73.5	22
73.52	26
73.54	25
73.56	35
73.58	28
73.6	24
73.62	37
73.64	28
73.66	36
73.68	45
73.7	51
73.72	37
73.74	66
73.76	67
73.78	88
73.8	87
73.82	115
73.84	111
73.86	117
73.88	137
73.9	144
73.92	147
73.94	149
73.96	160
73.98	188
74	182
74.02	197
74.04	227
74.06	207
74.08	233
74.1	199
74.12	240
74.14	221
74.16	201
74.18	174
74.2	163
74.22	142
74.24	129
74.26	140
74.28	103
74.3	126
74.32	113
74.34	107
74.36	98
74.38	77
74.4	64
74.42	56
74.44	34
74.46	41
74.48	21
74.5	28
74.52	20
74.54	33
74.56	25
74.58	29
74.6	27
74.62	21
74.64	30
74.66	21
74.68	19
74.7	19
74.72	21
74.74	16
74.76	17
74.78	10
74.8	19
74.82	16
74.84	21
74.86	16
74.88	19
74.9	19
74.92	19
74.94	15
74.96	11
74.98	12
75	14
75.02	15
75.04	16
75.06	15
75.08	15
75.1	11
75.12	14
75.14	12
75.16	10
75.18	15
75.2	13
75.22	14
75.24	13
75.26	15
75.28	15
75.3	18
75.32	16
75.34	10
75.36	18
75.38	8
75.4	12
75.42	16
75.44	16
75.46	23
75.48	14
75.5	19
75.52	19
75.54	14
75.56	15
75.58	15
75.6	11
75.62	11
75.64	14
75.66	14
75.68	12
75.7	12
75.72	16
75.74	12
75.76	25
75.78	22
75.8	17
75.82	22
75.84	19
75.86	13
75.88	14
75.9	16
75.92	10
75.94	15
75.96	9
75.98	20
76	11
76.02	20
76.04	15
76.06	16
76.08	15
76.1	11
76.12	13
76.14	13
76.16	14
76.18	22
76.2	13
76.22	17
76.24	14
76.26	11
76.28	19
76.3	18
76.32	20
76.34	13
76.36	10
76.38	14
76.4	24
76.42	12
76.44	15
76.46	12
76.48	15
76.5	19
76.52	14
76.54	15
76.56	15
76.58	12
76.6	11
76.62	18
76.64	16
76.66	15
76.68	15
76.7	13
76.72	11
76.74	9
76.76	16
76.78	8
76.8	16
76.82	14
76.84	16
76.86	19
76.88	10
76.9	7
76.92	13
76.94	12
76.96	13
76.98	16
77	15
77.02	16
77.04	16
77.06	12
77.08	15
77.1	19
77.12	7
77.14	16
77.16	10
77.18	14
77.2	18
77.22	17
77.24	11
77.26	11
77.28	8
77.3	15
77.32	18
77.34	10
77.36	15
77.38	21
77.4	13
77.42	17
77.44	6
77.46	9
77.48	15
77.5	17
77.52	16
77.54	10
77.56	9
77.58	11
77.6	14
77.62	12
77.64	8
77.66	11
77.68	13
77.7	8
77.72	15
77.74	11
77.76	15
77.78	10
77.8	16
77.82	16
77.84	18
77.86	14
77.88	15
77.9	15
77.92	7
77.94	11
77.96	25
77.98	10
78	16
78.02	13
78.04	7
78.06	16
78.08	12
78.1	13
78.12	12
78.14	11
78.16	17
78.18	14
78.2	12
78.22	14
78.24	11
78.26	9
78.28	6
78.3	13
78.32	15
78.34	9
78.36	10
78.38	14
78.4	15
78.42	21
78.44	7
78.46	13
78.48	13
78.5	10
78.52	14
78.54	13
78.56	16
78.58	14
78.6	16
78.62	17
78.64	12
78.66	10
78.68	10
78.7	17
78.72	18
78.74	8
78.76	15
78.78	16
78.8	17
78.82	13
78.84	11
78.86	11
78.88	21
78.9	11
78.92	21
78.94	7
78.96	13
78.98	7
79	10
79.02	13
79.04	10
79.06	11
79.08	8
79.1	13
79.12	14
79.14	12
79.16	19
79.18	9
79.2	14
79.22	14
79.24	13
79.26	19
79.28	15
79.3	19
79.32	5
79.34	11
79.36	16
79.38	16
79.4	8
79.42	10
79.44	14
79.46	21
79.48	20
79.5	16
79.52	14
79.54	10
79.56	16
79.58	16
79.6	13
79.62	8
79.64	6
79.66	7
79.68	15
79.7	23
79.72	15
79.74	19
79.76	13
79.78	15
79.8	11
79.82	13
79.84	8
79.86	13
79.88	15
79.9	22
79.92	12
79.94	19
79.96	11
79.98	8
80	12
80.02	11
80.04	19
80.06	20
80.08	12
80.1	11
80.12	16
80.14	23
80.16	11
80.18	16
80.2	11
80.22	13
80.24	11
80.26	18
80.28	16
80.3	18
80.32	11
80.34	10
80.36	19
80.38	10
80.4	10
80.42	12
80.44	16
80.46	10
80.48	22
80.5	10
80.52	13
80.54	5
80.56	9
80.58	9
80.6	14
80.62	18
80.64	13
80.66	11
80.68	18
80.7	13
80.72	8
80.74	19
80.76	18
80.78	16
80.8	12
80.82	9
80.84	12
80.86	12
80.88	17
80.9	10
80.92	14
80.94	13
80.96	10
80.98	8
81	10
81.02	12
81.04	14
81.06	21
81.08	11
81.1	11
81.12	14
81.14	18
81.16	15
81.18	10
81.2	9
81.22	9
81.24	15
81.26	13
81.28	11
81.3	13
81.32	15
81.34	9
81.36	8
81.38	12
81.4	20
81.42	12
81.44	11
81.46	16
81.48	18
81.5	11
81.52	12
81.54	5
81.56	9
81.58	12
81.6	12
81.62	16
81.64	15
81.66	10
81.68	16
81.7	11
81.72	12
81.74	8
81.76	7
81.78	12
81.8	6
81.82	18
81.84	20
81.86	14
81.88	16
81.9	15
81.92	13
81.94	17
81.96	10
81.98	13
82	14
82.02	16
82.04	12
82.06	14
82.08	12
82.1	10
82.12	15
82.14	10
82.16	17
82.18	13
82.2	8
82.22	13
82.24	14
82.26	19
82.28	17
82.3	12
82.32	14
82.34	15
82.36	16
82.38	12
82.4	11
82.42	11
82.44	19
82.46	18
82.48	13
82.5	16
82.52	21
82.54	10
82.56	13
82.58	14
82.6	23
82.62	14
82.64	17
82.66	11
82.68	15
82.7	20
82.72	19
82.74	6
82.76	10
82.78	20
82.8	10
82.82	14
82.84	9
82.86	10
82.88	12
82.9	12
82.92	21
82.94	16
82.96	8
82.98	12
83	16
83.02	13
83.04	10
83.06	13
83.08	14
83.1	9
83.12	12
83.14	16
83.16	17
83.18	15
83.2	14
83.22	10
83.24	10
83.26	17
83.28	15
83.3	13
83.32	19
83.34	15
83.36	20
83.38	15
83.4	15
83.42	10
83.44	16
83.46	10
83.48	13
83.5	8
83.52	13
83.54	12
83.56	9
83.58	14
83.6	9
83.62	15
83.64	12
83.66	21
83.68	13
83.7	16
83.72	10
83.74	12
83.76	14
83.78	12
83.8	12
83.82	15
83.84	18
83.86	19
83.88	13
83.9	10
83.92	15
83.94	9
83.96	9
83.98	8
84	7
84.02	14
84.04	8
84.06	12
84.08	12
84.1	13
84.12	14
84.14	16
84.16	15
84.18	14
84.2	11
84.22	13
84.24	10
84.26	11
84.28	18
84.3	18
84.32	7
84.34	24
84.36	13
84.38	11
84.4	14
84.42	15
84.44	14
84.46	18
84.48	17
84.5	16
84.52	13
84.54	12
84.56	10
84.58	11
84.6	11
84.62	11
84.64	17
84.66	8
84.68	3
84.7	17
84.72	19
84.74	13
84.76	13
84.78	20
84.8	8
84.82	14
84.84	17
84.86	12
84.88	11
84.9	12
84.92	12
84.94	6
84.96	15
84.98	18
85	11
85.02	17
85.04	18
85.06	9
85.08	19
85.1	15
85.12	18
85.14	10
85.16	11
85.18	15
85.2	17
85.22	18
85.24	13
85.26	16
85.28	10
85.3	14
85.32	13
85.34	14
85.36	15
85.38	15
85.4	14
85.42	11
85.44	12
85.46	10
85.48	14
85.5	17
85.52	12
85.54	17
85.56	13
85.58	13
85.6	10
85.62	18
85.64	12
85.66	18
85.68	18
85.7	15
85.72	15
85.74	15
85.76	13
85.78	17
85.8	14
85.82	17
85.84	17
85.86	12
85.88	10
85.9	8
85.92	17
85.94	10
85.96	21
85.98	15
86	9
86.02	11
86.04	14
86.06	11
86.08	8
86.1	13
86.12	7
86.14	12
86.16	13
86.18	12
86.2	14
86.22	12
86.24	16
86.26	16
86.28	19
86.3	12
86.32	15
86.34	13
86.36	9
86.38	13
86.4	18
86.42	16
86.44	18
86.46	15
86.48	9
86.5	11
86.52	17
86.54	11
86.56	10
86.58	14
86.6	15
86.62	15
86.64	13
86.66	19
86.68	21
86.7	16
86.72	17
86.74	11
86.76	13
86.78	16
86.8	16
86.82	13
86.84	12
86.86	16
86.88	13
86.9	16
86.92	13
86.94	19
86.96	19
86.98	13
87	13
87.02	10
87.04	22
87.06	17
87.08	18
87.1	16
87.12	16
87.14	12
87.16	19
87.18	13
87.2	18
87.22	15
87.24	18
87.26	15
87.28	15
87.3	9
87.32	15
87.34	13
87.36	14
87.38	7
87.4	20
87.42	15
87.44	20
87.46	24
87.48	11
87.5	9
87.52	16
87.54	18
87.56	15
87.58	15
87.6	19
87.62	11
87.64	19
87.66	29
87.68	18
87.7	11
87.72	21
87.74	23
87.76	17
87.78	23
87.8	14
87.82	19
87.84	22
87.86	18
87.88	12
87.9	19
87.92	22
87.94	18
87.96	19
87.98	18
88	10
88.02	15
88.04	13
88.06	19
88.08	11
88.1	18
88.12	11
88.14	20
88.16	19
88.18	13
88.2	27
88.22	15
88.24	8
88.26	16
88.28	16
88.3	17
88.32	13
88.34	21
88.36	10
88.38	14
88.4	11
88.42	17
88.44	12
88.46	8
88.48	16
88.5	14
88.52	10
88.54	16
88.56	15
88.58	21
88.6	17
88.62	21
88.64	7
88.66	10
88.68	19
88.7	16
88.72	15
88.74	8
88.76	10
88.78	23
88.8	11
88.82	15
88.84	16
88.86	16
88.88	17
88.9	14
88.92	15
88.94	12
88.96	9
88.98	20
89	15
89.02	12
89.04	6
89.06	12
89.08	12
89.1	8
89.12	8
89.14	22
89.16	14
89.18	10
89.2	12
89.22	18
89.24	9
89.26	11
89.28	14
89.3	14
89.32	16
89.34	14
89.36	13
89.38	18
89.4	7
89.42	15
89.44	10
89.46	16
89.48	10
89.5	8
89.52	18
89.54	13
89.56	11
89.58	6
89.6	13
89.62	15
89.64	19
89.66	20
89.68	14
89.7	11
89.72	20
89.74	12
89.76	16
89.78	7
89.8	10
89.82	11
89.84	10
89.86	13
89.88	17
89.9	20
89.92	10
89.94	10
89.96	12
89.98	12
90	13
90.02	12
90.04	10
90.06	15
90.08	11
90.1	10
90.12	15
90.14	14
90.16	16
90.18	16
90.2	15
90.22	13
90.24	18
90.26	14
90.28	18
90.3	11
90.32	14
90.34	13
90.36	5
90.38	12
90.4	14
90.42	16
90.44	14
90.46	11
90.48	17
90.5	11
90.52	19
90.54	12
90.56	11
90.58	10
90.6	14
90.62	17
90.64	16
90.66	12
90.68	13
90.7	8
90.72	15
90.74	11
90.76	17
90.78	14
90.8	11
90.82	10
90.84	13
90.86	12
90.88	14
90.9	24
90.92	19
90.94	14
90.96	13
90.98	10
91	13
91.02	12
91.04	12
91.06	20
91.08	15
91.1	14
91.12	15
91.14	14
91.16	9
91.18	9
91.2	13
91.22	19
91.24	16
91.26	19
91.28	11
91.3	10
91.32	14
91.34	12
91.36	13
91.38	13
91.4	18
91.42	14
91.44	13
91.46	12
91.48	11
91.5	12
91.52	12
91.54	6
91.56	12
91.58	15
91.6	17
91.62	16
91.64	13
91.66	9
91.68	9
91.7	15
91.72	11
91.74	14
91.76	13
91.78	16
91.8	10
91.82	23
91.84	15
91.86	15
91.88	13
91.9	18
91.92	14
91.94	14
91.96	18
91.98	13
92	11
92.02	12
92.04	17
92.06	17
92.08	9
92.1	14
92.12	5
92.14	8
92.16	12
92.18	13
92.2	15
92.22	17
92.24	12
92.26	14
92.28	15
92.3	12
92.32	7
92.34	11
92.36	21
92.38	15
92.4	11
92.42	12
92.44	15
92.46	12
92.48	14
92.5	10
92.52	16
92.54	14
92.56	12
92.58	13
92.6	12
92.62	6
92.64	14
92.66	12
92.68	15
92.7	10
92.72	13
92.74	4
92.76	9
92.78	9
92.8	20
92.82	15
92.84	12
92.86	14
92.88	10
92.9	14
92.92	15
92.94	16
92.96	13
92.98	15
93	15
93.02	14
93.04	6
93.06	7
93.08	15
93.1	13
93.12	10
93.14	10
93.16	16
93.18	16
93.2	12
93.22	11
93.24	10
93.26	21
93.28	7
93.3	11
93.32	20
93.34	19
93.36	22
93.38	13
93.4	11
93.42	11
93.44	10
93.46	10
93.48	19
93.5	10
93.52	11
93.54	21
93.56	8
93.58	19
93.6	23
93.62	12
93.64	5
93.66	16
93.68	11
93.7	12
93.72	14
93.74	10
93.76	12
93.78	13
93.8	10
93.82	19
93.84	11
93.86	11
93.88	9
93.9	13
93.92	14
93.94	16
93.96	13
93.98	20
94	8
94.02	14
94.04	12
94.06	8
94.08	19
94.1	4
94.12	18
94.14	13
94.16	12
94.18	17
94.2	10
94.22	20
94.24	15
94.26	9
94.28	13
94.3	14
94.32	7
94.34	17
94.36	12
94.38	11
94.4	18
94.42	11
94.44	11
94.46	16
94.48	12
94.5	10
94.52	12
94.54	14
94.56	11
94.58	10
94.6	14
94.62	17
94.64	15
94.66	14
94.68	11
94.7	19
94.72	14
94.74	14
94.76	12
94.78	14
94.8	19
94.82	10
94.84	18
94.86	10
94.88	16
94.9	13
94.92	19
94.94	13
94.96	8
94.98	11
95	19
95.02	10
95.04	17
95.06	8
95.08	16
95.1	13
95.12	12
95.14	8
95.16	12
95.18	20
95.2	14
95.22	16
95.24	7
95.26	9
95.28	14
95.3	17
95.32	12
95.34	15
95.36	14
95.38	18
95.4	18
95.42	15
95.44	14
95.46	10
95.48	17
95.5	12
95.52	8
95.54	12
95.56	13
95.58	12
95.6	13
95.62	14
95.64	13
95.66	8
95.68	16
95.7	12
95.72	8
95.74	20
95.76	24
95.78	13
95.8	17
95.82	17
95.84	14
95.86	16
95.88	16
95.9	12
95.92	13
95.94	18
95.96	21
95.98	13
96	10
96.02	10
96.04	11
96.06	11
96.08	14
96.1	19
96.12	13
96.14	12
96.16	13
96.18	15
96.2	16
96.22	10
96.24	13
96.26	15
96.28	15
96.3	5
96.32	16
96.34	14
96.36	14
96.38	19
96.4	23
96.42	12
96.44	12
96.46	10
96.48	9
96.5	17
96.52	13
96.54	19
96.56	12
96.58	20
96.6	9
96.62	20
96.64	9
96.66	19
96.68	11
96.7	9
96.72	16
96.74	11
96.76	11
96.78	15
96.8	15
96.82	12
96.84	15
96.86	16
96.88	15
96.9	12
96.92	19
96.94	16
96.96	18
96.98	21
97	12
97.02	16
97.04	11
97.06	10
97.08	13
97.1	22
97.12	12
97.14	13
97.16	19
97.18	12
97.2	12
97.22	9
97.24	13
97.26	11
97.28	14
97.3	9
97.32	13
97.34	10
97.36	15
97.38	9
97.4	16
97.42	17
97.44	17
97.46	11
97.48	15
97.5	10
97.52	13
97.54	8
97.56	15
97.58	14
97.6	8
97.62	13
97.64	17
97.66	15
97.68	24
97.7	19
97.72	12
97.74	17
97.76	14
97.78	28
97.8	11
97.82	13
97.84	16
97.86	10
97.88	15
97.9	8
97.92	22
97.94	15
97.96	12
97.98	15
98	17
98.02	20
98.04	12
98.06	16
98.08	13
98.1	19
98.12	20
98.14	8
98.16	14
98.18	13
98.2	6
98.22	14
98.24	13
98.26	15
98.28	15
98.3	20
98.32	15
98.34	14
98.36	21
98.38	20
98.4	15
98.42	12
98.44	13
98.46	16
98.48	14
98.5	6
98.52	11
98.54	12
98.56	14
98.58	16
98.6	16
98.62	10
98.64	15
98.66	8
98.68	12
98.7	16
98.72	16
98.74	25
98.76	12
98.78	10
98.8	13
98.82	16
98.84	15
98.86	20
98.88	9
98.9	9
98.92	15
98.94	12
98.96	14
98.98	9
99	24
99.02	13
99.04	12
99.06	16
99.08	9
99.1	16
99.12	15
99.14	11
99.16	12
99.18	16
99.2	7
99.22	14
99.24	12
99.26	12
99.28	20
99.3	14
99.32	12
99.34	19
99.36	12
99.38	16
99.4	13
99.42	9
99.44	9
99.46	10
99.48	8
99.5	18
99.52	18
99.54	11
99.56	12
99.58	11
99.6	15
99.62	17
99.64	16
99.66	18
99.68	11
99.7	13
99.72	11
99.74	16
99.76	16
99.78	16
99.8	14
99.82	11
99.84	9
99.86	16
99.88	21
99.9	15
99.92	6
99.94	20
99.96	9
99.98	18
100	8
100.02	9
100.04	15
100.06	17
100.08	14
100.1	13
100.12	16
100.14	9
100.16	11
100.18	15
100.2	15
100.22	8
100.24	11
100.26	15
100.28	13
100.3	17
100.32	15
100.34	10
100.36	4
100.38	11
100.4	12
100.42	10
100.44	9
100.46	19
100.48	26
100.5	17
100.52	18
100.54	19
100.56	20
100.58	20
100.6	12
100.62	15
100.64	15
100.66	16
100.68	14
100.7	12
100.72	12
100.74	15
100.76	21
100.78	20
100.8	19
100.82	17
100.84	25
100.86	24
100.88	17
100.9	16
100.92	23
100.94	17
100.96	14
100.98	11
101	15
101.02	23
101.04	26
101.06	28
101.08	19
101.1	15
101.12	27
101.14	20
101.16	23
101.18	34
101.2	28
101.22	20
101.24	18
101.26	21
101.28	27
101.3	25
101.32	25
101.34	24
101.36	40
101.38	33
101.4	38
101.42	30
101.44	20
101.46	31
101.48	26
101.5	38
101.52	41
101.54	36
101.56	34
101.58	28
101.6	37
101.62	34
101.64	34
101.66	35
101.68	36
101.7	43
101.72	37
101.74	37
101.76	26
101.78	32
101.8	26
101.82	38
101.84	30
101.86	46
101.88	34
101.9	38
101.92	31
101.94	44
101.96	30
101.98	38
102	29
102.02	31
102.04	36
102.06	29
102.08	31
102.1	25
102.12	23
102.14	31
102.16	30
102.18	24
102.2	28
102.22	27
102.24	24
102.26	19
102.28	19
102.3	20
102.32	11
102.34	25
102.36	22
102.38	18
102.4	14
102.42	25
102.44	15
102.46	24
102.48	26
102.5	21
102.52	17
102.54	24
102.56	19
102.58	14
102.6	19
102.62	16
102.64	23
102.66	15
102.68	14
102.7	14
102.72	17
102.74	10
102.76	16
102.78	20
102.8	15
102.82	16
102.84	12
102.86	14
102.88	19
102.9	18
102.92	13
102.94	16
102.96	12
102.98	20
103	11
103.02	12
103.04	17
103.06	14
103.08	12
103.1	19
103.12	13
103.14	14
103.16	12
103.18	16
103.2	13
103.22	23
103.24	14
103.26	14
103.28	15
103.3	9
103.32	16
103.34	15
103.36	12
103.38	9
103.4	12
103.42	15
103.44	11
103.46	14
103.48	9
103.5	18
103.52	18
103.54	9
103.56	13
103.58	14
103.6	17
103.62	12
103.64	13
103.66	14
103.68	19
103.7	18
103.72	9
103.74	18
103.76	6
103.78	14
103.8	16
103.82	9
103.84	13
103.86	13
103.88	9
103.9	14
103.92	7
103.94	14
103.96	20
103.98	16
104	17
104.02	16
104.04	11
104.06	18
104.08	12
104.1	21
104.12	12
104.14	21
104.16	16
104.18	15
104.2	16
104.22	19
104.24	18
104.26	14
104.28	12
104.3	14
104.32	16
104.34	11
104.36	15
104.38	21
104.4	13
104.42	8
104.44	17
104.46	15
104.48	15
104.5	11
104.52	14
104.54	9
104.56	13
104.58	17
104.6	17
104.62	18
104.64	15
104.66	20
104.68	10
104.7	18
104.72	15
104.74	14
104.76	13
104.78	14
104.8	17
104.82	16
104.84	11
104.86	15
104.88	14
104.9	14
104.92	13
104.94	17
104.96	11
104.98	17
105	19
105.02	12
105.04	12
105.06	21
105.08	16
105.1	9
105.12	12
105.14	11
105.16	15
105.18	10
105.2	15
105.22	12
105.24	14
105.26	13
105.28	17
105.3	20
105.32	18
105.34	19
105.36	14
105.38	17
105.4	13
105.42	24
105.44	13
105.46	15
105.48	19
105.5	18
105.52	12
105.54	23
105.56	15
105.58	13
105.6	15
105.62	9
105.64	19
105.66	14
105.68	11
105.7	13
105.72	14
105.74	10
105.76	15
105.78	10
105.8	19
105.82	16
105.84	16
105.86	24
105.88	11
105.9	17
105.92	15
105.94	9
105.96	8
105.98	21
106	20
106.02	19
106.04	16
106.06	11
106.08	13
106.1	9
106.12	15
106.14	19
106.16	10
106.18	14
106.2	14
106.22	20
106.24	18
106.26	21
106.28	14
106.3	14
106.32	19
106.34	17
106.36	14
106.38	15
106.4	21
106.42	15
106.44	11
106.46	8
106.48	15
106.5	8
106.52	17
106.54	10
106.56	17
106.58	12
106.6	9
106.62	17
106.64	16
106.66	16
106.68	21
106.7	18
106.72	9
106.74	22
106.76	20
106.78	13
106.8	13
106.82	16
106.84	14
106.86	14
106.88	17
106.9	22
106.92	14
106.94	13
106.96	12
106.98	10
107	9
107.02	17
107.04	16
107.06	21
107.08	7
107.1	18
107.12	13
107.14	15
107.16	11
107.18	9
107.2	21
107.22	20
107.24	9
107.26	10
107.28	13
107.3	18
107.32	21
107.34	10
107.36	13
107.38	11
107.4	14
107.42	16
107.44	16
107.46	16
107.48	12
107.5	10
107.52	7
107.54	16
107.56	13
107.58	24
107.6	18
107.62	12
107.64	13
107.66	18
107.68	15
107.7	10
107.72	20
107.74	23
107.76	10
107.78	17
107.8	18
107.82	14
107.84	13
107.86	15
107.88	11
107.9	11
107.92	9
107.94	11
107.96	10
107.98	11
108	15
108.02	17
108.04	15
108.06	15
108.08	6
108.1	10
108.12	14
108.14	10
108.16	11
108.18	19
108.2	15
108.22	12
108.24	11
108.26	13
108.28	7
108.3	16
108.32	19
108.34	15
108.36	15
108.38	15
108.4	12
108.42	16
108.44	16
108.46	12
108.48	14
108.5	14
108.52	15
108.54	10
108.56	6
108.58	13
108.6	6
108.62	15
108.64	7
108.66	20
108.68	12
108.7	13
108.72	11
108.74	20
108.76	20
108.78	16
108.8	14
108.82	12
108.84	20
108.86	22
108.88	14
108.9	15
108.92	14
108.94	10
108.96	15
108.98	19
109	15
109.02	10
109.04	15
109.06	18
109.08	17
109.1	11
109.12	16
109.14	12
109.16	17
109.18	13
109.2	15
109.22	16
109.24	12
109.26	13
109.28	14
109.3	19
109.32	9
109.34	16
109.36	16
109.38	14
109.4	12
109.42	10
109.44	16
109.46	21
109.48	10
109.5	16
109.52	17
109.54	12
109.56	16
109.58	22
109.6	14
109.62	15
109.64	11
109.66	15
109.68	20
109.7	12
109.72	12
109.74	12
109.76	11
109.78	14
109.8	11
109.82	17
109.84	22
109.86	13
109.88	11
109.9	16
109.92	18
109.94	16
109.96	16
109.98	15
110	12
110.02	24
110.04	14
110.06	13
110.08	13
110.1	10
110.12	12
110.14	7
110.16	10
110.18	14
110.2	11
110.22	14
110.24	6
110.26	15
110.28	15
110.3	11
110.32	17
110.34	20
110.36	13
110.38	22
110.4	18
110.42	26
110.44	26
110.46	14
110.48	13
110.5	11
110.52	12
110.54	6
110.56	14
110.58	10
110.6	15
110.62	18
110.64	11
110.66	14
110.68	11
110.7	15
110.72	18
110.74	21
110.76	16
110.78	11
110.8	17
110.82	14
110.84	13
110.86	10
110.88	11
110.9	13
110.92	7
110.94	13
110.96	12
110.98	8
111	15
111.02	12
111.04	11
111.06	11
111.08	13
111.1	15
111.12	13
111.14	11
111.16	15
111.18	16
111.2	12
111.22	13
111.24	12
111.26	24
111.28	20
111.3	17
111.32	14
111.34	14
111.36	19
111.38	11
111.4	19
111.42	13
111.44	12
111.46	11
111.48	14
111.5	21
111.52	24
111.54	12
111.56	16
111.58	15
111.6	14
111.62	10
111.64	18
111.66	16
111.68	16
111.7	11
111.72	11
111.74	15
111.76	12
111.78	12
111.8	19
111.82	13
111.84	9
111.86	8
111.88	12
111.9	14
111.92	13
111.94	13
111.96	15
111.98	14
112	20
112.02	14
112.04	10
112.06	12
112.08	13
112.1	10
112.12	11
112.14	10
112.16	11
112.18	17
112.2	14
112.22	17
112.24	22
112.26	16
112.28	17
112.3	18
112.32	17
112.34	13
112.36	24
112.38	12
112.4	19
112.42	12
112.44	18
112.46	19
112.48	20
112.5	10
112.52	18
112.54	20
112.56	13
112.58	13
112.6	16
112.62	12
112.64	15
112.66	16
112.68	13
112.7	19
112.72	17
112.74	20
112.76	16
112.78	17
112.8	12
112.82	13
112.84	17
112.86	12
112.88	11
112.9	9
112.92	24
112.94	17
112.96	12
112.98	13
113	16
113.02	17
113.04	25
113.06	7
113.08	11
113.1	14
113.12	15
113.14	20
113.16	14
113.18	15
113.2	16
113.22	14
113.24	17
113.26	11
113.28	13
113.3	15
113.32	7
113.34	13
113.36	16
113.38	13
113.4	20
113.42	12
113.44	9
113.46	13
113.48	13
113.5	13
113.52	9
113.54	11
113.56	23
113.58	20
113.6	16
113.62	15
113.64	18
113.66	8
113.68	9
113.7	12
113.72	18
113.74	18
113.76	18
113.78	13
113.8	12
113.82	11
113.84	9
113.86	17
113.88	9
113.9	19
113.92	14
113.94	14
113.96	14
113.98	19
114	15
114.02	13
114.04	11
114.06	19
114.08	20
114.1	18
114.12	17
114.14	11
114.16	18
114.18	13
114.2	12
114.22	14
114.24	20
114.26	9
114.28	11
114.3	15
114.32	23
114.34	17
114.36	11
114.38	18
114.4	21
114.42	21
114.44	20
114.46	16
114.48	18
114.5	13
114.52	15
114.54	15
114.56	19
114.58	17
114.6	14
114.62	20
114.64	12
114.66	24
114.68	27
114.7	18
114.72	14
114.74	18
114.76	14
114.78	19
114.8	20
114.82	19
114.84	17
114.86	13
114.88	18
114.9	17
114.92	20
114.94	19
114.96	16
114.98	11
115	14
115.02	9
115.04	13
115.06	20
115.08	16
115.1	9
115.12	21
115.14	23
115.16	7
115.18	11
115.2	17
115.22	10
115.24	16
115.26	16
115.28	5
115.3	10
115.32	8
115.34	15
115.36	18
115.38	16
115.4	17
115.42	22
115.44	8
115.46	24
115.48	14
115.5	18
115.52	17
115.54	15
115.56	12
115.58	17
115.6	13
115.62	20
115.64	18
115.66	10
115.68	13
115.7	20
115.72	16
115.74	12
115.76	14
115.78	12
115.8	26
115.82	24
115.84	22
115.86	16
115.88	18
115.9	23
115.92	17
115.94	23
115.96	26
115.98	19
116	30
116.02	23
116.04	24
116.06	29
116.08	27
116.1	21
116.12	28
116.14	26
116.16	24
116.18	28
116.2	27
116.22	25
116.24	35
116.26	28
116.28	30
116.3	28
116.32	28
116.34	30
116.36	23
116.38	19
116.4	38
116.42	26
116.44	26
116.46	27
116.48	20
116.5	27
116.52	26
116.54	19
116.56	24
116.58	25
116.6	20
116.62	32
116.64	14
116.66	25
116.68	16
116.7	15
116.72	17
116.74	20
116.76	23
116.78	17
116.8	26
116.82	13
116.84	16
116.86	16
116.88	16
116.9	14
116.92	14
116.94	20
116.96	14
116.98	13
117	16
117.02	20
117.04	15
117.06	16
117.08	23
117.1	16
117.12	16
117.14	20
117.16	19
117.18	18
117.2	13
117.22	16
117.24	14
117.26	20
117.28	22
117.3	21
117.32	5
117.34	17
117.36	8
117.38	14
117.4	11
117.42	20
117.44	18
117.46	15
117.48	8
117.5	15
117.52	12
117.54	17
117.56	5
117.58	13
117.6	19
117.62	14
117.64	12
117.66	13
117.68	9
117.7	19
117.72	9
117.74	24
117.76	17
117.78	14
117.8	10
117.82	13
117.84	14
117.86	18
117.88	23
117.9	8
117.92	15
117.94	11
117.96	18
117.98	16
118	13
118.02	12
118.04	14
118.06	13
118.08	18
118.1	16
118.12	17
118.14	12
118.16	10
118.18	16
118.2	11
118.22	16
118.24	14
118.26	17
118.28	15
118.3	12
118.32	12
118.34	17
118.36	18
118.38	9
118.4	13
118.42	19
118.44	17
118.46	16
118.48	9
118.5	10
118.52	13
118.54	11
118.56	17
118.58	19
118.6	21
118.62	9
118.64	12
118.66	17
118.68	13
118.7	15
118.72	21
118.74	17
118.76	13
118.78	19
118.8	21
118.82	16
118.84	20
118.86	10
118.88	10
118.9	12
118.92	16
118.94	12
118.96	16
118.98	17
119	19
119.02	20
119.04	15
119.06	26
119.08	15
119.1	8
119.12	16
119.14	18
119.16	15
119.18	10
119.2	10
119.22	14
119.24	12
119.26	13
119.28	14
119.3	15
119.32	18
119.34	10
119.36	12
119.38	19
119.4	15
119.42	17
119.44	11
119.46	10
119.48	21
119.5	16
119.52	20
119.54	16
119.56	17
119.58	20
119.6	17
119.62	10
119.64	20
119.66	13
119.68	24
119.7	18
119.72	12
119.74	16
119.76	14
119.78	21
119.8	22
119.82	18
119.84	21
119.86	14
119.88	15
119.9	13
119.92	15
119.94	21
119.96	19
119.98	13
120	11
