Sample	
Comments	
Filename	C:\DOCUME~1\ALUNOS\DESKTOP\F740B_1S2022_GRUPO1\amostra7_20-110_002_25_19-04-22_22-26.raw
Goniometer	Miniflex goniometer
Attachment	Standard sample holder
Monochromater	None
ScanningMode	2Theta/Theta
ScanningType	Continuos Scanning
X-Ray	30kV/15mA
Divergence slit	Unknown
Scattering slit	4.2deg.
Receiving slit	0.3mm
Kb filter	
Start	20
Stop	110
Step	0.02
20	6
20.02	8
20.04	7
20.06	8
20.08	8
20.1	10
20.12	5
20.14	10
20.16	11
20.18	5
20.2	11
20.22	7
20.24	12
20.26	14
20.28	11
20.3	9
20.32	10
20.34	9
20.36	7
20.38	7
20.4	12
20.42	10
20.44	15
20.46	12
20.48	2
20.5	8
20.52	6
20.54	9
20.56	11
20.58	10
20.6	13
20.62	14
20.64	16
20.66	13
20.68	9
20.7	11
20.72	9
20.74	12
20.76	5
20.78	12
20.8	8
20.82	9
20.84	12
20.86	14
20.88	6
20.9	7
20.92	11
20.94	6
20.96	12
20.98	16
21	8
21.02	9
21.04	8
21.06	8
21.08	11
21.1	6
21.12	7
21.14	7
21.16	4
21.18	9
21.2	10
21.22	8
21.24	8
21.26	11
21.28	11
21.3	1
21.32	10
21.34	10
21.36	12
21.38	9
21.4	4
21.42	15
21.44	15
21.46	12
21.48	10
21.5	16
21.52	6
21.54	8
21.56	18
21.58	12
21.6	9
21.62	5
21.64	7
21.66	9
21.68	9
21.7	8
21.72	10
21.74	9
21.76	8
21.78	8
21.8	6
21.82	9
21.84	13
21.86	9
21.88	8
21.9	14
21.92	5
21.94	9
21.96	12
21.98	8
22	9
22.02	7
22.04	5
22.06	14
22.08	5
22.1	9
22.12	16
22.14	11
22.16	16
22.18	10
22.2	13
22.22	15
22.24	10
22.26	7
22.28	9
22.3	11
22.32	5
22.34	8
22.36	11
22.38	4
22.4	7
22.42	13
22.44	8
22.46	9
22.48	14
22.5	7
22.52	8
22.54	10
22.56	12
22.58	9
22.6	9
22.62	9
22.64	5
22.66	8
22.68	14
22.7	9
22.72	9
22.74	13
22.76	7
22.78	11
22.8	14
22.82	6
22.84	9
22.86	4
22.88	10
22.9	6
22.92	12
22.94	10
22.96	9
22.98	9
23	3
23.02	12
23.04	8
23.06	14
23.08	4
23.1	8
23.12	11
23.14	10
23.16	8
23.18	12
23.2	13
23.22	8
23.24	11
23.26	22
23.28	11
23.3	5
23.32	10
23.34	8
23.36	11
23.38	16
23.4	13
23.42	14
23.44	5
23.46	9
23.48	9
23.5	13
23.52	14
23.54	6
23.56	11
23.58	10
23.6	8
23.62	9
23.64	9
23.66	10
23.68	14
23.7	7
23.72	12
23.74	8
23.76	11
23.78	7
23.8	13
23.82	9
23.84	9
23.86	12
23.88	8
23.9	12
23.92	9
23.94	8
23.96	9
23.98	11
24	9
24.02	14
24.04	12
24.06	12
24.08	12
24.1	16
24.12	10
24.14	9
24.16	9
24.18	6
24.2	18
24.22	9
24.24	14
24.26	7
24.28	12
24.3	11
24.32	7
24.34	8
24.36	11
24.38	4
24.4	8
24.42	8
24.44	8
24.46	7
24.48	3
24.5	9
24.52	11
24.54	17
24.56	13
24.58	13
24.6	7
24.62	8
24.64	7
24.66	10
24.68	11
24.7	9
24.72	7
24.74	10
24.76	8
24.78	10
24.8	5
24.82	13
24.84	9
24.86	3
24.88	10
24.9	8
24.92	8
24.94	8
24.96	7
24.98	9
25	11
25.02	10
25.04	9
25.06	11
25.08	9
25.1	12
25.12	11
25.14	9
25.16	7
25.18	10
25.2	9
25.22	11
25.24	9
25.26	6
25.28	12
25.3	15
25.32	9
25.34	10
25.36	8
25.38	14
25.4	9
25.42	3
25.44	10
25.46	6
25.48	14
25.5	11
25.52	13
25.54	9
25.56	13
25.58	20
25.6	16
25.62	11
25.64	9
25.66	9
25.68	6
25.7	8
25.72	5
25.74	15
25.76	7
25.78	9
25.8	11
25.82	12
25.84	12
25.86	9
25.88	11
25.9	10
25.92	12
25.94	7
25.96	9
25.98	7
26	5
26.02	3
26.04	9
26.06	7
26.08	7
26.1	8
26.12	10
26.14	7
26.16	6
26.18	15
26.2	13
26.22	7
26.24	10
26.26	10
26.28	11
26.3	5
26.32	10
26.34	9
26.36	16
26.38	13
26.4	4
26.42	13
26.44	17
26.46	12
26.48	6
26.5	11
26.52	15
26.54	12
26.56	6
26.58	6
26.6	13
26.62	12
26.64	9
26.66	14
26.68	13
26.7	16
26.72	4
26.74	9
26.76	11
26.78	7
26.8	5
26.82	7
26.84	12
26.86	7
26.88	17
26.9	14
26.92	11
26.94	8
26.96	10
26.98	8
27	9
27.02	11
27.04	8
27.06	9
27.08	3
27.1	4
27.12	10
27.14	7
27.16	7
27.18	11
27.2	6
27.22	6
27.24	15
27.26	12
27.28	12
27.3	7
27.32	7
27.34	8
27.36	4
27.38	15
27.4	6
27.42	5
27.44	9
27.46	4
27.48	9
27.5	9
27.52	11
27.54	8
27.56	12
27.58	7
27.6	11
27.62	11
27.64	9
27.66	10
27.68	9
27.7	9
27.72	7
27.74	7
27.76	6
27.78	8
27.8	8
27.82	15
27.84	8
27.86	6
27.88	12
27.9	11
27.92	11
27.94	12
27.96	11
27.98	5
28	14
28.02	11
28.04	6
28.06	13
28.08	4
28.1	10
28.12	12
28.14	7
28.16	13
28.18	13
28.2	9
28.22	9
28.24	12
28.26	8
28.28	5
28.3	7
28.32	8
28.34	10
28.36	12
28.38	13
28.4	10
28.42	15
28.44	12
28.46	4
28.48	19
28.5	11
28.52	7
28.54	13
28.56	23
28.58	18
28.6	12
28.62	15
28.64	15
28.66	11
28.68	11
28.7	7
28.72	17
28.74	18
28.76	14
28.78	16
28.8	9
28.82	23
28.84	18
28.86	8
28.88	14
28.9	21
28.92	14
28.94	18
28.96	21
28.98	20
29	17
29.02	30
29.04	14
29.06	31
29.08	28
29.1	36
29.12	35
29.14	42
29.16	38
29.18	28
29.2	50
29.22	62
29.24	69
29.26	80
29.28	87
29.3	128
29.32	167
29.34	215
29.36	218
29.38	308
29.4	435
29.42	556
29.44	740
29.46	893
29.48	1104
29.5	1155
29.52	1199
29.54	1077
29.56	958
29.58	782
29.6	655
29.62	466
29.64	355
29.66	252
29.68	181
29.7	135
29.72	105
29.74	89
29.76	86
29.78	50
29.8	52
29.82	34
29.84	30
29.86	34
29.88	30
29.9	24
29.92	20
29.94	23
29.96	15
29.98	24
30	24
30.02	21
30.04	13
30.06	19
30.08	15
30.1	23
30.12	15
30.14	23
30.16	13
30.18	19
30.2	18
30.22	19
30.24	15
30.26	13
30.28	16
30.3	17
30.32	11
30.34	13
30.36	15
30.38	12
30.4	12
30.42	12
30.44	15
30.46	14
30.48	10
30.5	11
30.52	24
30.54	15
30.56	11
30.58	17
30.6	7
30.62	14
30.64	12
30.66	11
30.68	14
30.7	15
30.72	13
30.74	14
30.76	15
30.78	9
30.8	22
30.82	17
30.84	14
30.86	10
30.88	16
30.9	16
30.92	13
30.94	13
30.96	20
30.98	15
31	14
31.02	11
31.04	11
31.06	14
31.08	17
31.1	17
31.12	10
31.14	13
31.16	15
31.18	19
31.2	12
31.22	12
31.24	12
31.26	12
31.28	11
31.3	12
31.32	14
31.34	19
31.36	14
31.38	21
31.4	15
31.42	12
31.44	12
31.46	16
31.48	13
31.5	11
31.52	20
31.54	11
31.56	17
31.58	9
31.6	14
31.62	14
31.64	19
31.66	13
31.68	14
31.7	11
31.72	16
31.74	10
31.76	8
31.78	8
31.8	10
31.82	12
31.84	10
31.86	13
31.88	13
31.9	14
31.92	14
31.94	20
31.96	14
31.98	13
32	14
32.02	17
32.04	10
32.06	17
32.08	15
32.1	5
32.12	10
32.14	17
32.16	14
32.18	9
32.2	17
32.22	14
32.24	11
32.26	10
32.28	12
32.3	20
32.32	6
32.34	14
32.36	12
32.38	14
32.4	23
32.42	18
32.44	11
32.46	16
32.48	14
32.5	16
32.52	3
32.54	17
32.56	13
32.58	14
32.6	15
32.62	16
32.64	16
32.66	17
32.68	11
32.7	10
32.72	15
32.74	17
32.76	13
32.78	15
32.8	13
32.82	15
32.84	16
32.86	14
32.88	8
32.9	15
32.92	16
32.94	9
32.96	15
32.98	18
33	11
33.02	21
33.04	18
33.06	15
33.08	16
33.1	20
33.12	14
33.14	12
33.16	15
33.18	23
33.2	9
33.22	11
33.24	16
33.26	20
33.28	10
33.3	12
33.32	14
33.34	16
33.36	22
33.38	17
33.4	19
33.42	17
33.44	13
33.46	14
33.48	16
33.5	13
33.52	13
33.54	14
33.56	8
33.58	9
33.6	15
33.62	15
33.64	17
33.66	11
33.68	11
33.7	15
33.72	13
33.74	20
33.76	23
33.78	21
33.8	9
33.82	13
33.84	15
33.86	15
33.88	14
33.9	16
33.92	20
33.94	16
33.96	13
33.98	23
34	18
34.02	17
34.04	17
34.06	12
34.08	19
34.1	11
34.12	20
34.14	24
34.16	14
34.18	16
34.2	17
34.22	24
34.24	19
34.26	17
34.28	14
34.3	15
34.32	21
34.34	21
34.36	15
34.38	16
34.4	15
34.42	18
34.44	17
34.46	11
34.48	15
34.5	18
34.52	20
34.54	15
34.56	22
34.58	19
34.6	27
34.62	10
34.64	15
34.66	18
34.68	11
34.7	17
34.72	13
34.74	19
34.76	14
34.78	16
34.8	19
34.82	18
34.84	24
34.86	17
34.88	17
34.9	14
34.92	20
34.94	12
34.96	28
34.98	17
35	9
35.02	24
35.04	14
35.06	13
35.08	19
35.1	19
35.12	17
35.14	25
35.16	11
35.18	17
35.2	14
35.22	14
35.24	22
35.26	14
35.28	27
35.3	9
35.32	20
35.34	23
35.36	16
35.38	14
35.4	23
35.42	22
35.44	21
35.46	10
35.48	13
35.5	19
35.52	13
35.54	17
35.56	19
35.58	16
35.6	25
35.62	17
35.64	10
35.66	22
35.68	15
35.7	17
35.72	13
35.74	18
35.76	18
35.78	18
35.8	18
35.82	20
35.84	12
35.86	24
35.88	15
35.9	16
35.92	23
35.94	19
35.96	15
35.98	13
36	10
36.02	17
36.04	14
36.06	15
36.08	12
36.1	29
36.12	19
36.14	23
36.16	22
36.18	19
36.2	19
36.22	15
36.24	18
36.26	18
36.28	15
36.3	21
36.32	20
36.34	19
36.36	22
36.38	18
36.4	19
36.42	12
36.44	20
36.46	14
36.48	25
36.5	15
36.52	25
36.54	9
36.56	14
36.58	32
36.6	19
36.62	16
36.64	19
36.66	18
36.68	22
36.7	18
36.72	17
36.74	19
36.76	20
36.78	20
36.8	25
36.82	24
36.84	21
36.86	25
36.88	25
36.9	19
36.92	21
36.94	14
36.96	18
36.98	25
37	25
37.02	17
37.04	18
37.06	15
37.08	15
37.1	23
37.12	19
37.14	30
37.16	30
37.18	21
37.2	24
37.22	24
37.24	21
37.26	22
37.28	35
37.3	27
37.32	16
37.34	17
37.36	16
37.38	24
37.4	21
37.42	21
37.44	17
37.46	20
37.48	19
37.5	19
37.52	13
37.54	24
37.56	23
37.58	16
37.6	25
37.62	13
37.64	14
37.66	22
37.68	16
37.7	9
37.72	18
37.74	21
37.76	22
37.78	24
37.8	12
37.82	18
37.84	19
37.86	10
37.88	13
37.9	19
37.92	23
37.94	14
37.96	20
37.98	16
38	15
38.02	17
38.04	21
38.06	22
38.08	20
38.1	11
38.12	17
38.14	16
38.16	15
38.18	14
38.2	15
38.22	14
38.24	11
38.26	18
38.28	15
38.3	17
38.32	18
38.34	18
38.36	18
38.38	10
38.4	13
38.42	20
38.44	18
38.46	18
38.48	18
38.5	26
38.52	11
38.54	15
38.56	17
38.58	18
38.6	17
38.62	10
38.64	10
38.66	14
38.68	16
38.7	16
38.72	17
38.74	14
38.76	20
38.78	13
38.8	16
38.82	14
38.84	16
38.86	15
38.88	22
38.9	10
38.92	19
38.94	14
38.96	17
38.98	15
39	12
39.02	17
39.04	17
39.06	17
39.08	21
39.1	17
39.12	20
39.14	14
39.16	11
39.18	22
39.2	12
39.22	17
39.24	13
39.26	17
39.28	11
39.3	14
39.32	11
39.34	19
39.36	19
39.38	13
39.4	14
39.42	13
39.44	15
39.46	11
39.48	18
39.5	5
39.52	8
39.54	16
39.56	8
39.58	7
39.6	27
39.62	19
39.64	15
39.66	21
39.68	15
39.7	13
39.72	19
39.74	21
39.76	12
39.78	18
39.8	17
39.82	17
39.84	14
39.86	8
39.88	10
39.9	30
39.92	7
39.94	14
39.96	15
39.98	15
40	13
40.02	13
40.04	17
40.06	12
40.08	17
40.1	17
40.12	15
40.14	14
40.16	13
40.18	14
40.2	10
40.22	10
40.24	21
40.26	15
40.28	14
40.3	14
40.32	14
40.34	15
40.36	16
40.38	19
40.4	17
40.42	22
40.44	13
40.46	14
40.48	15
40.5	14
40.52	14
40.54	15
40.56	17
40.58	10
40.6	13
40.62	9
40.64	10
40.66	16
40.68	14
40.7	13
40.72	12
40.74	15
40.76	18
40.78	14
40.8	13
40.82	16
40.84	8
40.86	12
40.88	18
40.9	11
40.92	11
40.94	17
40.96	16
40.98	19
41	8
41.02	9
41.04	14
41.06	9
41.08	9
41.1	10
41.12	14
41.14	19
41.16	13
41.18	10
41.2	16
41.22	15
41.24	15
41.26	13
41.28	7
41.3	14
41.32	17
41.34	12
41.36	17
41.38	13
41.4	14
41.42	15
41.44	11
41.46	12
41.48	16
41.5	14
41.52	10
41.54	11
41.56	11
41.58	11
41.6	16
41.62	12
41.64	11
41.66	11
41.68	8
41.7	11
41.72	13
41.74	16
41.76	9
41.78	7
41.8	13
41.82	17
41.84	10
41.86	13
41.88	13
41.9	10
41.92	10
41.94	15
41.96	14
41.98	10
42	15
42.02	8
42.04	13
42.06	16
42.08	6
42.1	10
42.12	8
42.14	7
42.16	12
42.18	11
42.2	9
42.22	6
42.24	16
42.26	16
42.28	16
42.3	5
42.32	5
42.34	12
42.36	7
42.38	8
42.4	15
42.42	15
42.44	15
42.46	14
42.48	9
42.5	15
42.52	11
42.54	12
42.56	3
42.58	14
42.6	15
42.62	9
42.64	17
42.66	7
42.68	19
42.7	10
42.72	14
42.74	8
42.76	8
42.78	8
42.8	7
42.82	7
42.84	9
42.86	17
42.88	6
42.9	11
42.92	10
42.94	12
42.96	4
42.98	8
43	12
43.02	17
43.04	9
43.06	9
43.08	1
43.1	9
43.12	15
43.14	6
43.16	10
43.18	13
43.2	10
43.22	11
43.24	10
43.26	5
43.28	9
43.3	6
43.32	8
43.34	10
43.36	13
43.38	13
43.4	9
43.42	13
43.44	6
43.46	16
43.48	13
43.5	9
43.52	15
43.54	13
43.56	10
43.58	8
43.6	14
43.62	11
43.64	15
43.66	8
43.68	7
43.7	6
43.72	6
43.74	8
43.76	10
43.78	9
43.8	12
43.82	17
43.84	13
43.86	13
43.88	11
43.9	19
43.92	16
43.94	10
43.96	6
43.98	11
44	8
44.02	9
44.04	10
44.06	9
44.08	9
44.1	11
44.12	8
44.14	10
44.16	11
44.18	12
44.2	10
44.22	11
44.24	9
44.26	5
44.28	13
44.3	10
44.32	6
44.34	13
44.36	7
44.38	7
44.4	6
44.42	7
44.44	8
44.46	13
44.48	6
44.5	6
44.52	10
44.54	10
44.56	7
44.58	8
44.6	11
44.62	8
44.64	7
44.66	10
44.68	4
44.7	8
44.72	9
44.74	12
44.76	7
44.78	6
44.8	15
44.82	4
44.84	12
44.86	8
44.88	6
44.9	8
44.92	5
44.94	8
44.96	9
44.98	5
45	8
45.02	3
45.04	6
45.06	13
45.08	9
45.1	14
45.12	11
45.14	7
45.16	12
45.18	13
45.2	8
45.22	7
45.24	10
45.26	5
45.28	9
45.3	5
45.32	5
45.34	6
45.36	5
45.38	10
45.4	10
45.42	10
45.44	7
45.46	7
45.48	8
45.5	12
45.52	7
45.54	7
45.56	6
45.58	6
45.6	10
45.62	4
45.64	7
45.66	7
45.68	10
45.7	15
45.72	7
45.74	10
45.76	5
45.78	4
45.8	5
45.82	10
45.84	7
45.86	7
45.88	10
45.9	7
45.92	7
45.94	5
45.96	5
45.98	5
46	6
46.02	10
46.04	10
46.06	8
46.08	11
46.1	9
46.12	20
46.14	4
46.16	7
46.18	13
46.2	5
46.22	5
46.24	5
46.26	3
46.28	7
46.3	11
46.32	11
46.34	11
46.36	7
46.38	4
46.4	9
46.42	9
46.44	3
46.46	9
46.48	10
46.5	5
46.52	7
46.54	8
46.56	3
46.58	12
46.6	4
46.62	6
46.64	11
46.66	7
46.68	8
46.7	5
46.72	11
46.74	5
46.76	6
46.78	5
46.8	3
46.82	8
46.84	2
46.86	7
46.88	9
46.9	6
46.92	6
46.94	4
46.96	8
46.98	6
47	11
47.02	3
47.04	10
47.06	6
47.08	7
47.1	6
47.12	4
47.14	7
47.16	9
47.18	5
47.2	13
47.22	8
47.24	10
47.26	9
47.28	7
47.3	8
47.32	8
47.34	9
47.36	9
47.38	5
47.4	5
47.42	7
47.44	4
47.46	7
47.48	6
47.5	7
47.52	5
47.54	11
47.56	8
47.58	7
47.6	9
47.62	13
47.64	7
47.66	4
47.68	9
47.7	8
47.72	5
47.74	10
47.76	6
47.78	5
47.8	7
47.82	10
47.84	7
47.86	7
47.88	3
47.9	6
47.92	7
47.94	9
47.96	7
47.98	4
48	12
48.02	8
48.04	4
48.06	7
48.08	5
48.1	5
48.12	11
48.14	4
48.16	7
48.18	5
48.2	7
48.22	7
48.24	4
48.26	7
48.28	9
48.3	7
48.32	6
48.34	5
48.36	7
48.38	3
48.4	11
48.42	5
48.44	6
48.46	9
48.48	9
48.5	7
48.52	6
48.54	2
48.56	4
48.58	8
48.6	6
48.62	3
48.64	1
48.66	5
48.68	5
48.7	8
48.72	4
48.74	8
48.76	10
48.78	7
48.8	2
48.82	12
48.84	10
48.86	8
48.88	8
48.9	7
48.92	6
48.94	6
48.96	5
48.98	4
49	5
49.02	6
49.04	8
49.06	4
49.08	9
49.1	2
49.12	9
49.14	5
49.16	7
49.18	7
49.2	7
49.22	8
49.24	5
49.26	8
49.28	6
49.3	8
49.32	5
49.34	11
49.36	8
49.38	8
49.4	5
49.42	5
49.44	8
49.46	7
49.48	5
49.5	9
49.52	7
49.54	7
49.56	5
49.58	6
49.6	12
49.62	7
49.64	6
49.66	8
49.68	4
49.7	10
49.72	6
49.74	6
49.76	4
49.78	8
49.8	10
49.82	8
49.84	8
49.86	4
49.88	10
49.9	4
49.92	12
49.94	6
49.96	6
49.98	8
50	6
50.02	8
50.04	8
50.06	3
50.08	4
50.1	4
50.12	6
50.14	11
50.16	8
50.18	9
50.2	10
50.22	11
50.24	7
50.26	2
50.28	7
50.3	8
50.32	5
50.34	10
50.36	6
50.38	9
50.4	8
50.42	7
50.44	5
50.46	4
50.48	8
50.5	5
50.52	11
50.54	9
50.56	7
50.58	4
50.6	5
50.62	6
50.64	8
50.66	1
50.68	4
50.7	7
50.72	3
50.74	5
50.76	4
50.78	4
50.8	6
50.82	5
50.84	10
50.86	6
50.88	2
50.9	10
50.92	2
50.94	3
50.96	6
50.98	7
51	5
51.02	4
51.04	9
51.06	3
51.08	10
51.1	8
51.12	8
51.14	4
51.16	7
51.18	3
51.2	6
51.22	3
51.24	8
51.26	8
51.28	8
51.3	4
51.32	8
51.34	9
51.36	4
51.38	5
51.4	1
51.42	6
51.44	9
51.46	2
51.48	2
51.5	5
51.52	3
51.54	6
51.56	12
51.58	4
51.6	6
51.62	7
51.64	7
51.66	6
51.68	7
51.7	10
51.72	7
51.74	5
51.76	7
51.78	5
51.8	6
51.82	6
51.84	3
51.86	4
51.88	6
51.9	9
51.92	5
51.94	5
51.96	7
51.98	6
52	6
52.02	4
52.04	4
52.06	14
52.08	4
52.1	2
52.12	6
52.14	6
52.16	2
52.18	7
52.2	2
52.22	4
52.24	7
52.26	5
52.28	5
52.3	4
52.32	1
52.34	3
52.36	3
52.38	10
52.4	11
52.42	6
52.44	7
52.46	4
52.48	7
52.5	3
52.52	8
52.54	6
52.56	5
52.58	6
52.6	8
52.62	4
52.64	5
52.66	7
52.68	7
52.7	4
52.72	3
52.74	2
52.76	6
52.78	6
52.8	6
52.82	7
52.84	4
52.86	8
52.88	7
52.9	7
52.92	5
52.94	8
52.96	2
52.98	4
53	5
53.02	7
53.04	7
53.06	6
53.08	5
53.1	7
53.12	0
53.14	7
53.16	4
53.18	4
53.2	7
53.22	7
53.24	4
53.26	9
53.28	5
53.3	4
53.32	4
53.34	6
53.36	1
53.38	4
53.4	10
53.42	1
53.44	9
53.46	4
53.48	7
53.5	10
53.52	7
53.54	6
53.56	5
53.58	6
53.6	4
53.62	6
53.64	8
53.66	4
53.68	2
53.7	6
53.72	6
53.74	6
53.76	4
53.78	4
53.8	7
53.82	5
53.84	8
53.86	5
53.88	6
53.9	8
53.92	4
53.94	9
53.96	7
53.98	5
54	9
54.02	6
54.04	5
54.06	8
54.08	10
54.1	9
54.12	6
54.14	3
54.16	5
54.18	10
54.2	9
54.22	8
54.24	6
54.26	6
54.28	10
54.3	10
54.32	4
54.34	8
54.36	6
54.38	10
54.4	10
54.42	10
54.44	9
54.46	25
54.48	32
54.5	26
54.52	25
54.54	29
54.56	25
54.58	26
54.6	14
54.62	10
54.64	5
54.66	9
54.68	10
54.7	16
54.72	9
54.74	6
54.76	6
54.78	8
54.8	9
54.82	10
54.84	7
54.86	7
54.88	2
54.9	7
54.92	7
54.94	8
54.96	7
54.98	9
55	10
55.02	6
55.04	3
55.06	7
55.08	11
55.1	4
55.12	9
55.14	7
55.16	7
55.18	4
55.2	8
55.22	4
55.24	4
55.26	8
55.28	10
55.3	6
55.32	8
55.34	14
55.36	11
55.38	7
55.4	8
55.42	3
55.44	3
55.46	2
55.48	8
55.5	3
55.52	10
55.54	8
55.56	9
55.58	8
55.6	5
55.62	4
55.64	3
55.66	7
55.68	2
55.7	5
55.72	6
55.74	2
55.76	4
55.78	8
55.8	4
55.82	4
55.84	9
55.86	4
55.88	8
55.9	1
55.92	3
55.94	7
55.96	2
55.98	10
56	5
56.02	7
56.04	4
56.06	7
56.08	5
56.1	4
56.12	4
56.14	2
56.16	5
56.18	2
56.2	4
56.22	9
56.24	5
56.26	4
56.28	5
56.3	9
56.32	5
56.34	6
56.36	6
56.38	3
56.4	10
56.42	3
56.44	3
56.46	6
56.48	5
56.5	7
56.52	3
56.54	4
56.56	6
56.58	8
56.6	6
56.62	3
56.64	6
56.66	7
56.68	9
56.7	7
56.72	5
56.74	7
56.76	10
56.78	10
56.8	7
56.82	4
56.84	6
56.86	9
56.88	10
56.9	4
56.92	5
56.94	4
56.96	5
56.98	10
57	4
57.02	11
57.04	2
57.06	5
57.08	10
57.1	13
57.12	3
57.14	6
57.16	5
57.18	3
57.2	7
57.22	7
57.24	9
57.26	7
57.28	10
57.3	4
57.32	5
57.34	4
57.36	3
57.38	5
57.4	4
57.42	5
57.44	8
57.46	8
57.48	2
57.5	9
57.52	3
57.54	7
57.56	6
57.58	5
57.6	6
57.62	5
57.64	7
57.66	7
57.68	4
57.7	11
57.72	6
57.74	8
57.76	8
57.78	5
57.8	3
57.82	7
57.84	9
57.86	11
57.88	2
57.9	6
57.92	8
57.94	7
57.96	13
57.98	6
58	7
58.02	11
58.04	4
58.06	7
58.08	14
58.1	9
58.12	10
58.14	14
58.16	4
58.18	8
58.2	9
58.22	7
58.24	5
58.26	4
58.28	6
58.3	9
58.32	7
58.34	4
58.36	8
58.38	10
58.4	7
58.42	6
58.44	13
58.46	9
58.48	10
58.5	8
58.52	11
58.54	14
58.56	11
58.58	9
58.6	23
58.62	15
58.64	14
58.66	23
58.68	14
58.7	16
58.72	15
58.74	19
58.76	17
58.78	18
58.8	17
58.82	22
58.84	20
58.86	20
58.88	21
58.9	21
58.92	10
58.94	26
58.96	16
58.98	16
59	22
59.02	17
59.04	14
59.06	19
59.08	17
59.1	24
59.12	17
59.14	24
59.16	26
59.18	15
59.2	16
59.22	12
59.24	17
59.26	17
59.28	16
59.3	21
59.32	10
59.34	19
59.36	18
59.38	14
59.4	23
59.42	19
59.44	14
59.46	19
59.48	20
59.5	24
59.52	20
59.54	16
59.56	25
59.58	20
59.6	22
59.62	27
59.64	20
59.66	21
59.68	21
59.7	28
59.72	29
59.74	27
59.76	20
59.78	26
59.8	25
59.82	34
59.84	35
59.86	24
59.88	33
59.9	30
59.92	29
59.94	34
59.96	26
59.98	34
60	55
60.02	38
60.04	45
60.06	47
60.08	35
60.1	36
60.12	37
60.14	54
60.16	44
60.18	56
60.2	60
60.22	67
60.24	57
60.26	85
60.28	87
60.3	89
60.32	107
60.34	96
60.36	102
60.38	127
60.4	138
60.42	150
60.44	174
60.46	191
60.48	229
60.5	225
60.52	273
60.54	294
60.56	340
60.58	394
60.6	439
60.62	480
60.64	543
60.66	626
60.68	685
60.7	916
60.72	1109
60.74	1402
60.76	1967
60.78	3222
60.8	5853
60.82	10990
60.84	16373
60.86	19639
60.88	20123
60.9	17128
60.92	11168
60.94	6564
60.96	4699
60.98	4979
61	5657
61.02	6092
61.04	5928
61.06	5180
61.08	3379
61.1	1858
61.12	1034
61.14	633
61.16	427
61.18	318
61.2	265
61.22	225
61.24	167
61.26	158
61.28	114
61.3	121
61.32	97
61.34	83
61.36	86
61.38	69
61.4	69
61.42	59
61.44	64
61.46	60
61.48	50
61.5	59
61.52	44
61.54	38
61.56	45
61.58	48
61.6	31
61.62	42
61.64	44
61.66	42
61.68	27
61.7	36
61.72	29
61.74	30
61.76	40
61.78	32
61.8	31
61.82	25
61.84	16
61.86	23
61.88	42
61.9	37
61.92	40
61.94	32
61.96	21
61.98	23
62	18
62.02	31
62.04	24
62.06	33
62.08	23
62.1	20
62.12	30
62.14	25
62.16	26
62.18	29
62.2	24
62.22	22
62.24	16
62.26	29
62.28	25
62.3	25
62.32	23
62.34	24
62.36	25
62.38	30
62.4	31
62.42	20
62.44	18
62.46	13
62.48	22
62.5	25
62.52	19
62.54	25
62.56	22
62.58	20
62.6	22
62.62	15
62.64	18
62.66	19
62.68	23
62.7	19
62.72	14
62.74	25
62.76	16
62.78	28
62.8	18
62.82	22
62.84	16
62.86	17
62.88	31
62.9	23
62.92	23
62.94	13
62.96	18
62.98	20
63	16
63.02	14
63.04	12
63.06	23
63.08	27
63.1	15
63.12	15
63.14	18
63.16	14
63.18	18
63.2	13
63.22	13
63.24	16
63.26	13
63.28	18
63.3	18
63.32	11
63.34	14
63.36	17
63.38	19
63.4	15
63.42	19
63.44	27
63.46	19
63.48	22
63.5	15
63.52	18
63.54	18
63.56	20
63.58	22
63.6	23
63.62	17
63.64	20
63.66	12
63.68	10
63.7	15
63.72	14
63.74	12
63.76	20
63.78	25
63.8	20
63.82	12
63.84	13
63.86	20
63.88	19
63.9	17
63.92	25
63.94	12
63.96	19
63.98	13
64	19
64.02	22
64.04	21
64.06	28
64.08	16
64.1	19
64.12	13
64.14	12
64.16	14
64.18	22
64.2	17
64.22	13
64.24	20
64.26	17
64.28	10
64.3	17
64.32	13
64.34	18
64.36	21
64.38	14
64.4	13
64.42	15
64.44	19
64.46	8
64.48	11
64.5	17
64.52	16
64.54	14
64.56	15
64.58	12
64.6	20
64.62	11
64.64	14
64.66	14
64.68	20
64.7	13
64.72	20
64.74	19
64.76	22
64.78	14
64.8	14
64.82	14
64.84	13
64.86	12
64.88	18
64.9	11
64.92	16
64.94	15
64.96	20
64.98	21
65	18
65.02	15
65.04	19
65.06	13
65.08	16
65.1	21
65.12	17
65.14	19
65.16	27
65.18	16
65.2	16
65.22	14
65.24	15
65.26	12
65.28	24
65.3	17
65.32	14
65.34	13
65.36	18
65.38	14
65.4	19
65.42	15
65.44	14
65.46	15
65.48	11
65.5	15
65.52	6
65.54	22
65.56	18
65.58	14
65.6	18
65.62	12
65.64	16
65.66	20
65.68	13
65.7	11
65.72	16
65.74	14
65.76	19
65.78	13
65.8	18
65.82	23
65.84	13
65.86	17
65.88	10
65.9	10
65.92	14
65.94	12
65.96	15
65.98	13
66	15
66.02	11
66.04	14
66.06	20
66.08	10
66.1	11
66.12	26
66.14	11
66.16	12
66.18	19
66.2	18
66.22	16
66.24	17
66.26	12
66.28	10
66.3	17
66.32	13
66.34	11
66.36	15
66.38	11
66.4	21
66.42	7
66.44	16
66.46	16
66.48	16
66.5	20
66.52	13
66.54	16
66.56	16
66.58	20
66.6	16
66.62	18
66.64	18
66.66	16
66.68	13
66.7	10
66.72	14
66.74	9
66.76	10
66.78	12
66.8	18
66.82	13
66.84	21
66.86	11
66.88	13
66.9	18
66.92	21
66.94	10
66.96	15
66.98	24
67	24
67.02	17
67.04	16
67.06	10
67.08	12
67.1	7
67.12	12
67.14	8
67.16	8
67.18	15
67.2	17
67.22	15
67.24	20
67.26	21
67.28	12
67.3	14
67.32	9
67.34	17
67.36	16
67.38	8
67.4	16
67.42	11
67.44	13
67.46	14
67.48	12
67.5	10
67.52	10
67.54	12
67.56	10
67.58	17
67.6	12
67.62	10
67.64	19
67.66	8
67.68	22
67.7	14
67.72	12
67.74	18
67.76	11
67.78	10
67.8	18
67.82	6
67.84	15
67.86	14
67.88	10
67.9	17
67.92	10
67.94	16
67.96	13
67.98	9
68	11
68.02	13
68.04	13
68.06	14
68.08	11
68.1	17
68.12	12
68.14	11
68.16	15
68.18	16
68.2	11
68.22	13
68.24	11
68.26	10
68.28	11
68.3	18
68.32	14
68.34	11
68.36	15
68.38	15
68.4	17
68.42	12
68.44	10
68.46	21
68.48	8
68.5	15
68.52	8
68.54	8
68.56	7
68.58	17
68.6	9
68.62	10
68.64	13
68.66	4
68.68	13
68.7	12
68.72	10
68.74	21
68.76	14
68.78	12
68.8	9
68.82	17
68.84	15
68.86	18
68.88	15
68.9	20
68.92	9
68.94	15
68.96	16
68.98	18
69	12
69.02	9
69.04	13
69.06	10
69.08	16
69.1	12
69.12	14
69.14	15
69.16	10
69.18	11
69.2	15
69.22	15
69.24	5
69.26	12
69.28	13
69.3	14
69.32	11
69.34	9
69.36	12
69.38	10
69.4	14
69.42	15
69.44	14
69.46	11
69.48	17
69.5	14
69.52	15
69.54	14
69.56	16
69.58	15
69.6	9
69.62	14
69.64	9
69.66	10
69.68	14
69.7	12
69.72	15
69.74	14
69.76	8
69.78	11
69.8	11
69.82	10
69.84	9
69.86	9
69.88	13
69.9	15
69.92	19
69.94	16
69.96	14
69.98	7
70	12
70.02	13
70.04	13
70.06	12
70.08	12
70.1	13
70.12	12
70.14	14
70.16	10
70.18	14
70.2	14
70.22	13
70.24	10
70.26	12
70.28	9
70.3	13
70.32	9
70.34	10
70.36	9
70.38	16
70.4	15
70.42	10
70.44	19
70.46	13
70.48	19
70.5	23
70.52	6
70.54	19
70.56	9
70.58	9
70.6	10
70.62	14
70.64	11
70.66	26
70.68	7
70.7	10
70.72	12
70.74	16
70.76	12
70.78	11
70.8	14
70.82	17
70.84	11
70.86	12
70.88	22
70.9	14
70.92	15
70.94	16
70.96	13
70.98	13
71	14
71.02	13
71.04	19
71.06	12
71.08	10
71.1	12
71.12	6
71.14	14
71.16	19
71.18	11
71.2	9
71.22	10
71.24	13
71.26	10
71.28	13
71.3	12
71.32	12
71.34	13
71.36	18
71.38	11
71.4	16
71.42	13
71.44	17
71.46	11
71.48	8
71.5	11
71.52	9
71.54	13
71.56	16
71.58	10
71.6	21
71.62	11
71.64	14
71.66	20
71.68	13
71.7	18
71.72	13
71.74	15
71.76	14
71.78	10
71.8	10
71.82	10
71.84	5
71.86	12
71.88	4
71.9	14
71.92	12
71.94	12
71.96	11
71.98	11
72	9
72.02	10
72.04	17
72.06	7
72.08	18
72.1	10
72.12	8
72.14	9
72.16	16
72.18	10
72.2	13
72.22	5
72.24	10
72.26	13
72.28	6
72.3	13
72.32	17
72.34	16
72.36	10
72.38	5
72.4	14
72.42	12
72.44	8
72.46	11
72.48	11
72.5	16
72.52	13
72.54	11
72.56	17
72.58	10
72.6	17
72.62	16
72.64	12
72.66	12
72.68	17
72.7	9
72.72	4
72.74	8
72.76	13
72.78	12
72.8	6
72.82	14
72.84	9
72.86	10
72.88	10
72.9	12
72.92	9
72.94	11
72.96	13
72.98	11
73	7
73.02	13
73.04	11
73.06	12
73.08	13
73.1	11
73.12	13
73.14	17
73.16	11
73.18	9
73.2	9
73.22	7
73.24	13
73.26	17
73.28	10
73.3	11
73.32	11
73.34	12
73.36	10
73.38	11
73.4	18
73.42	9
73.44	10
73.46	6
73.48	9
73.5	13
73.52	10
73.54	12
73.56	11
73.58	15
73.6	14
73.62	14
73.64	13
73.66	12
73.68	11
73.7	13
73.72	11
73.74	13
73.76	10
73.78	7
73.8	13
73.82	9
73.84	8
73.86	11
73.88	14
73.9	10
73.92	7
73.94	8
73.96	10
73.98	4
74	12
74.02	17
74.04	14
74.06	11
74.08	12
74.1	5
74.12	8
74.14	18
74.16	9
74.18	12
74.2	13
74.22	12
74.24	8
74.26	9
74.28	11
74.3	9
74.32	10
74.34	8
74.36	13
74.38	15
74.4	14
74.42	20
74.44	13
74.46	12
74.48	11
74.5	11
74.52	13
74.54	7
74.56	8
74.58	14
74.6	11
74.62	12
74.64	16
74.66	17
74.68	10
74.7	12
74.72	10
74.74	8
74.76	14
74.78	14
74.8	8
74.82	11
74.84	18
74.86	14
74.88	10
74.9	11
74.92	15
74.94	18
74.96	7
74.98	9
75	19
75.02	10
75.04	14
75.06	13
75.08	8
75.1	10
75.12	6
75.14	10
75.16	13
75.18	13
75.2	6
75.22	7
75.24	8
75.26	7
75.28	15
75.3	11
75.32	11
75.34	11
75.36	14
75.38	11
75.4	10
75.42	12
75.44	9
75.46	6
75.48	11
75.5	10
75.52	15
75.54	12
75.56	16
75.58	11
75.6	10
75.62	10
75.64	10
75.66	7
75.68	10
75.7	10
75.72	10
75.74	9
75.76	7
75.78	10
75.8	17
75.82	10
75.84	8
75.86	22
75.88	11
75.9	13
75.92	16
75.94	11
75.96	10
75.98	6
76	13
76.02	17
76.04	8
76.06	13
76.08	10
76.1	9
76.12	14
76.14	16
76.16	12
76.18	11
76.2	8
76.22	15
76.24	10
76.26	12
76.28	13
76.3	12
76.32	9
76.34	18
76.36	10
76.38	11
76.4	8
76.42	11
76.44	9
76.46	9
76.48	6
76.5	12
76.52	6
76.54	11
76.56	9
76.58	13
76.6	10
76.62	12
76.64	12
76.66	9
76.68	12
76.7	13
76.72	21
76.74	11
76.76	6
76.78	12
76.8	8
76.82	9
76.84	8
76.86	11
76.88	9
76.9	7
76.92	13
76.94	9
76.96	15
76.98	14
77	12
77.02	13
77.04	10
77.06	8
77.08	6
77.1	11
77.12	9
77.14	13
77.16	9
77.18	8
77.2	11
77.22	10
77.24	10
77.26	13
77.28	12
77.3	7
77.32	14
77.34	8
77.36	16
77.38	19
77.4	19
77.42	12
77.44	9
77.46	11
77.48	6
77.5	13
77.52	8
77.54	7
77.56	11
77.58	5
77.6	7
77.62	11
77.64	16
77.66	9
77.68	7
77.7	8
77.72	8
77.74	9
77.76	9
77.78	18
77.8	12
77.82	13
77.84	12
77.86	11
77.88	7
77.9	10
77.92	12
77.94	9
77.96	7
77.98	4
78	15
78.02	12
78.04	10
78.06	11
78.08	14
78.1	10
78.12	13
78.14	9
78.16	18
78.18	15
78.2	9
78.22	13
78.24	6
78.26	9
78.28	7
78.3	9
78.32	9
78.34	16
78.36	7
78.38	17
78.4	20
78.42	13
78.44	11
78.46	11
78.48	7
78.5	9
78.52	13
78.54	12
78.56	11
78.58	11
78.6	6
78.62	10
78.64	8
78.66	10
78.68	13
78.7	12
78.72	15
78.74	8
78.76	21
78.78	11
78.8	17
78.82	8
78.84	7
78.86	14
78.88	20
78.9	16
78.92	17
78.94	13
78.96	19
78.98	20
79	25
79.02	14
79.04	12
79.06	12
79.08	13
79.1	11
79.12	12
79.14	16
79.16	9
79.18	11
79.2	7
79.22	8
79.24	9
79.26	9
79.28	14
79.3	17
79.32	14
79.34	3
79.36	14
79.38	15
79.4	9
79.42	4
79.44	12
79.46	10
79.48	11
79.5	12
79.52	10
79.54	12
79.56	10
79.58	9
79.6	12
79.62	13
79.64	10
79.66	10
79.68	5
79.7	13
79.72	6
79.74	14
79.76	12
79.78	2
79.8	9
79.82	7
79.84	8
79.86	6
79.88	10
79.9	8
79.92	5
79.94	13
79.96	14
79.98	12
80	14
80.02	10
80.04	18
80.06	3
80.08	10
80.1	6
80.12	8
80.14	12
80.16	13
80.18	4
80.2	14
80.22	10
80.24	3
80.26	11
80.28	15
80.3	8
80.32	4
80.34	5
80.36	5
80.38	8
80.4	12
80.42	3
80.44	13
80.46	11
80.48	7
80.5	7
80.52	7
80.54	10
80.56	13
80.58	6
80.6	10
80.62	10
80.64	9
80.66	7
80.68	14
80.7	7
80.72	6
80.74	8
80.76	6
80.78	5
80.8	16
80.82	6
80.84	7
80.86	9
80.88	12
80.9	5
80.92	6
80.94	8
80.96	8
80.98	14
81	7
81.02	10
81.04	3
81.06	9
81.08	12
81.1	7
81.12	13
81.14	12
81.16	9
81.18	3
81.2	7
81.22	10
81.24	11
81.26	8
81.28	10
81.3	13
81.32	7
81.34	8
81.36	10
81.38	12
81.4	10
81.42	13
81.44	8
81.46	5
81.48	7
81.5	7
81.52	8
81.54	8
81.56	10
81.58	10
81.6	14
81.62	12
81.64	4
81.66	7
81.68	10
81.7	10
81.72	12
81.74	4
81.76	10
81.78	6
81.8	11
81.82	4
81.84	3
81.86	6
81.88	9
81.9	7
81.92	4
81.94	10
81.96	9
81.98	6
82	11
82.02	14
82.04	6
82.06	9
82.08	9
82.1	8
82.12	9
82.14	7
82.16	6
82.18	6
82.2	5
82.22	6
82.24	7
82.26	16
82.28	8
82.3	11
82.32	6
82.34	9
82.36	10
82.38	6
82.4	9
82.42	4
82.44	5
82.46	7
82.48	5
82.5	9
82.52	6
82.54	9
82.56	9
82.58	9
82.6	17
82.62	8
82.64	15
82.66	6
82.68	11
82.7	13
82.72	11
82.74	7
82.76	5
82.78	11
82.8	10
82.82	8
82.84	12
82.86	9
82.88	12
82.9	13
82.92	12
82.94	7
82.96	10
82.98	14
83	9
83.02	10
83.04	9
83.06	6
83.08	9
83.1	7
83.12	10
83.14	8
83.16	9
83.18	8
83.2	7
83.22	11
83.24	4
83.26	15
83.28	9
83.3	10
83.32	13
83.34	11
83.36	6
83.38	6
83.4	15
83.42	8
83.44	5
83.46	8
83.48	4
83.5	5
83.52	12
83.54	6
83.56	4
83.58	9
83.6	9
83.62	5
83.64	7
83.66	7
83.68	7
83.7	10
83.72	14
83.74	12
83.76	5
83.78	10
83.8	10
83.82	8
83.84	11
83.86	16
83.88	12
83.9	10
83.92	6
83.94	6
83.96	8
83.98	8
84	10
84.02	10
84.04	12
84.06	7
84.08	10
84.1	4
84.12	5
84.14	7
84.16	8
84.18	9
84.2	10
84.22	2
84.24	8
84.26	7
84.28	9
84.3	7
84.32	13
84.34	9
84.36	10
84.38	7
84.4	10
84.42	9
84.44	11
84.46	6
84.48	9
84.5	8
84.52	7
84.54	8
84.56	9
84.58	5
84.6	8
84.62	5
84.64	13
84.66	9
84.68	6
84.7	8
84.72	11
84.74	13
84.76	10
84.78	6
84.8	12
84.82	5
84.84	6
84.86	11
84.88	6
84.9	6
84.92	11
84.94	7
84.96	3
84.98	9
85	10
85.02	5
85.04	6
85.06	6
85.08	7
85.1	6
85.12	7
85.14	7
85.16	6
85.18	10
85.2	11
85.22	5
85.24	11
85.26	12
85.28	6
85.3	3
85.32	6
85.34	6
85.36	6
85.38	7
85.4	7
85.42	12
85.44	2
85.46	13
85.48	8
85.5	12
85.52	12
85.54	9
85.56	11
85.58	7
85.6	7
85.62	8
85.64	5
85.66	8
85.68	10
85.7	5
85.72	8
85.74	14
85.76	6
85.78	3
85.8	5
85.82	14
85.84	9
85.86	14
85.88	11
85.9	6
85.92	5
85.94	6
85.96	8
85.98	10
86	10
86.02	8
86.04	17
86.06	6
86.08	8
86.1	13
86.12	8
86.14	10
86.16	7
86.18	8
86.2	11
86.22	12
86.24	8
86.26	11
86.28	11
86.3	8
86.32	4
86.34	7
86.36	3
86.38	6
86.4	4
86.42	9
86.44	7
86.46	6
86.48	5
86.5	11
86.52	11
86.54	6
86.56	8
86.58	11
86.6	8
86.62	4
86.64	13
86.66	6
86.68	13
86.7	7
86.72	8
86.74	7
86.76	6
86.78	8
86.8	9
86.82	8
86.84	13
86.86	5
86.88	13
86.9	10
86.92	7
86.94	5
86.96	6
86.98	6
87	13
87.02	6
87.04	8
87.06	13
87.08	6
87.1	13
87.12	12
87.14	7
87.16	12
87.18	6
87.2	9
87.22	9
87.24	8
87.26	9
87.28	7
87.3	8
87.32	5
87.34	17
87.36	11
87.38	8
87.4	7
87.42	5
87.44	8
87.46	4
87.48	10
87.5	6
87.52	10
87.54	6
87.56	7
87.58	8
87.6	7
87.62	5
87.64	7
87.66	6
87.68	4
87.7	5
87.72	8
87.74	10
87.76	8
87.78	15
87.8	8
87.82	6
87.84	13
87.86	3
87.88	6
87.9	7
87.92	5
87.94	4
87.96	8
87.98	4
88	7
88.02	7
88.04	5
88.06	6
88.08	11
88.1	5
88.12	8
88.14	4
88.16	5
88.18	6
88.2	9
88.22	8
88.24	10
88.26	6
88.28	6
88.3	5
88.32	9
88.34	8
88.36	7
88.38	6
88.4	10
88.42	7
88.44	6
88.46	1
88.48	3
88.5	9
88.52	12
88.54	9
88.56	10
88.58	9
88.6	7
88.62	6
88.64	10
88.66	4
88.68	13
88.7	6
88.72	16
88.74	12
88.76	11
88.78	7
88.8	3
88.82	9
88.84	3
88.86	6
88.88	8
88.9	5
88.92	10
88.94	5
88.96	8
88.98	6
89	10
89.02	5
89.04	11
89.06	2
89.08	9
89.1	5
89.12	9
89.14	7
89.16	8
89.18	5
89.2	3
89.22	3
89.24	6
89.26	10
89.28	9
89.3	8
89.32	7
89.34	6
89.36	7
89.38	8
89.4	8
89.42	8
89.44	9
89.46	4
89.48	9
89.5	10
89.52	4
89.54	10
89.56	8
89.58	7
89.6	6
89.62	10
89.64	4
89.66	7
89.68	5
89.7	5
89.72	8
89.74	11
89.76	7
89.78	6
89.8	5
89.82	8
89.84	1
89.86	6
89.88	5
89.9	5
89.92	4
89.94	4
89.96	7
89.98	5
90	6
90.02	4
90.04	6
90.06	5
90.08	2
90.1	10
90.12	6
90.14	5
90.16	5
90.18	13
90.2	3
90.22	6
90.24	4
90.26	5
90.28	10
90.3	4
90.32	9
90.34	4
90.36	5
90.38	2
90.4	7
90.42	9
90.44	3
90.46	2
90.48	5
90.5	9
90.52	9
90.54	9
90.56	7
90.58	6
90.6	11
90.62	9
90.64	12
90.66	10
90.68	4
90.7	6
90.72	6
90.74	9
90.76	7
90.78	3
90.8	8
90.82	9
90.84	1
90.86	5
90.88	6
90.9	5
90.92	10
90.94	4
90.96	6
90.98	9
91	10
91.02	5
91.04	6
91.06	10
91.08	6
91.1	3
91.12	6
91.14	7
91.16	6
91.18	5
91.2	7
91.22	6
91.24	11
91.26	8
91.28	3
91.3	3
91.32	10
91.34	6
91.36	3
91.38	10
91.4	6
91.42	7
91.44	6
91.46	4
91.48	6
91.5	5
91.52	9
91.54	8
91.56	3
91.58	4
91.6	6
91.62	6
91.64	8
91.66	6
91.68	3
91.7	7
91.72	4
91.74	6
91.76	7
91.78	6
91.8	7
91.82	7
91.84	9
91.86	6
91.88	6
91.9	8
91.92	7
91.94	4
91.96	5
91.98	6
92	10
92.02	5
92.04	7
92.06	10
92.08	2
92.1	8
92.12	10
92.14	5
92.16	5
92.18	15
92.2	7
92.22	6
92.24	5
92.26	3
92.28	6
92.3	12
92.32	4
92.34	5
92.36	6
92.38	4
92.4	4
92.42	4
92.44	4
92.46	4
92.48	5
92.5	7
92.52	4
92.54	11
92.56	5
92.58	7
92.6	6
92.62	5
92.64	4
92.66	12
92.68	6
92.7	4
92.72	11
92.74	4
92.76	9
92.78	4
92.8	11
92.82	5
92.84	4
92.86	7
92.88	7
92.9	6
92.92	4
92.94	5
92.96	4
92.98	7
93	10
93.02	7
93.04	8
93.06	6
93.08	5
93.1	10
93.12	10
93.14	6
93.16	8
93.18	6
93.2	1
93.22	7
93.24	7
93.26	6
93.28	6
93.3	7
93.32	7
93.34	6
93.36	5
93.38	7
93.4	4
93.42	6
93.44	4
93.46	2
93.48	6
93.5	7
93.52	2
93.54	5
93.56	3
93.58	6
93.6	10
93.62	7
93.64	6
93.66	8
93.68	4
93.7	7
93.72	6
93.74	3
93.76	5
93.78	6
93.8	7
93.82	8
93.84	11
93.86	5
93.88	5
93.9	4
93.92	10
93.94	11
93.96	9
93.98	5
94	7
94.02	5
94.04	3
94.06	9
94.08	8
94.1	11
94.12	7
94.14	7
94.16	4
94.18	3
94.2	10
94.22	9
94.24	7
94.26	1
94.28	12
94.3	7
94.32	2
94.34	7
94.36	1
94.38	11
94.4	4
94.42	9
94.44	7
94.46	8
94.48	2
94.5	7
94.52	6
94.54	1
94.56	3
94.58	10
94.6	7
94.62	6
94.64	8
94.66	5
94.68	4
94.7	7
94.72	4
94.74	10
94.76	11
94.78	7
94.8	10
94.82	8
94.84	9
94.86	8
94.88	4
94.9	9
94.92	6
94.94	6
94.96	8
94.98	3
95	6
95.02	6
95.04	7
95.06	7
95.08	5
95.1	11
95.12	9
95.14	3
95.16	5
95.18	3
95.2	12
95.22	7
95.24	10
95.26	5
95.28	5
95.3	4
95.32	8
95.34	4
95.36	11
95.38	7
95.4	8
95.42	8
95.44	5
95.46	4
95.48	1
95.5	9
95.52	9
95.54	7
95.56	6
95.58	2
95.6	4
95.62	5
95.64	5
95.66	5
95.68	3
95.7	10
95.72	4
95.74	4
95.76	6
95.78	5
95.8	4
95.82	4
95.84	4
95.86	10
95.88	5
95.9	7
95.92	4
95.94	4
95.96	8
95.98	2
96	5
96.02	0
96.04	7
96.06	3
96.08	7
96.1	5
96.12	12
96.14	7
96.16	5
96.18	8
96.2	9
96.22	3
96.24	5
96.26	5
96.28	6
96.3	3
96.32	7
96.34	6
96.36	5
96.38	9
96.4	10
96.42	6
96.44	8
96.46	14
96.48	9
96.5	5
96.52	7
96.54	9
96.56	8
96.58	6
96.6	8
96.62	7
96.64	2
96.66	2
96.68	5
96.7	8
96.72	6
96.74	10
96.76	9
96.78	6
96.8	7
96.82	8
96.84	5
96.86	9
96.88	5
96.9	3
96.92	10
96.94	13
96.96	2
96.98	7
97	6
97.02	10
97.04	3
97.06	4
97.08	8
97.1	4
97.12	8
97.14	9
97.16	7
97.18	7
97.2	7
97.22	6
97.24	7
97.26	12
97.28	4
97.3	11
97.32	8
97.34	8
97.36	5
97.38	12
97.4	8
97.42	3
97.44	8
97.46	8
97.48	6
97.5	5
97.52	6
97.54	7
97.56	11
97.58	3
97.6	11
97.62	7
97.64	8
97.66	5
97.68	3
97.7	10
97.72	6
97.74	8
97.76	9
97.78	13
97.8	3
97.82	3
97.84	5
97.86	8
97.88	7
97.9	11
97.92	10
97.94	9
97.96	13
97.98	9
98	7
98.02	12
98.04	12
98.06	20
98.08	10
98.1	9
98.12	6
98.14	7
98.16	7
98.18	9
98.2	4
98.22	8
98.24	14
98.26	6
98.28	11
98.3	11
98.32	10
98.34	6
98.36	16
98.38	17
98.4	10
98.42	15
98.44	14
98.46	14
98.48	17
98.5	17
98.52	21
98.54	26
98.56	40
98.58	39
98.6	61
98.62	62
98.64	70
98.66	90
98.68	63
98.7	58
98.72	29
98.74	36
98.76	29
98.78	34
98.8	19
98.82	17
98.84	18
98.86	20
98.88	19
98.9	39
98.92	38
98.94	26
98.96	41
98.98	42
99	41
99.02	38
99.04	20
99.06	34
99.08	19
99.1	21
99.12	11
99.14	17
99.16	10
99.18	9
99.2	12
99.22	11
99.24	15
99.26	10
99.28	10
99.3	3
99.32	11
99.34	11
99.36	8
99.38	10
99.4	7
99.42	9
99.44	9
99.46	10
99.48	4
99.5	6
99.52	7
99.54	12
99.56	4
99.58	7
99.6	7
99.62	8
99.64	11
99.66	7
99.68	10
99.7	7
99.72	7
99.74	7
99.76	5
99.78	8
99.8	5
99.82	3
99.84	10
99.86	5
99.88	7
99.9	3
99.92	8
99.94	8
99.96	8
99.98	8
100	4
100.02	7
100.04	9
100.06	11
100.08	6
100.1	8
100.12	8
100.14	7
100.16	14
100.18	4
100.2	7
100.22	5
100.24	7
100.26	8
100.28	5
100.3	4
100.32	8
100.34	9
100.36	5
100.38	2
100.4	7
100.42	3
100.44	7
100.46	8
100.48	5
100.5	6
100.52	3
100.54	4
100.56	7
100.58	4
100.6	5
100.62	7
100.64	14
100.66	4
100.68	8
100.7	5
100.72	6
100.74	11
100.76	6
100.78	9
100.8	5
100.82	6
100.84	5
100.86	4
100.88	1
100.9	6
100.92	2
100.94	3
100.96	6
100.98	7
101	7
101.02	8
101.04	5
101.06	7
101.08	1
101.1	4
101.12	5
101.14	9
101.16	4
101.18	7
101.2	5
101.22	7
101.24	4
101.26	9
101.28	9
101.3	7
101.32	9
101.34	6
101.36	4
101.38	5
101.4	5
101.42	6
101.44	9
101.46	6
101.48	5
101.5	6
101.52	5
101.54	7
101.56	9
101.58	3
101.6	9
101.62	3
101.64	4
101.66	2
101.68	5
101.7	5
101.72	5
101.74	9
101.76	8
101.78	4
101.8	7
101.82	8
101.84	3
101.86	5
101.88	5
101.9	4
101.92	3
101.94	4
101.96	10
101.98	8
102	6
102.02	11
102.04	7
102.06	9
102.08	5
102.1	9
102.12	8
102.14	8
102.16	3
102.18	3
102.2	5
102.22	3
102.24	5
102.26	8
102.28	8
102.3	3
102.32	9
102.34	8
102.36	8
102.38	6
102.4	4
102.42	6
102.44	4
102.46	7
102.48	5
102.5	3
102.52	7
102.54	6
102.56	5
102.58	2
102.6	7
102.62	5
102.64	8
102.66	10
102.68	8
102.7	6
102.72	4
102.74	12
102.76	9
102.78	6
102.8	7
102.82	12
102.84	9
102.86	9
102.88	3
102.9	8
102.92	11
102.94	9
102.96	8
102.98	7
103	8
103.02	10
103.04	10
103.06	6
103.08	5
103.1	9
103.12	4
103.14	11
103.16	10
103.18	6
103.2	6
103.22	5
103.24	10
103.26	7
103.28	6
103.3	6
103.32	7
103.34	3
103.36	10
103.38	7
103.4	6
103.42	5
103.44	3
103.46	6
103.48	8
103.5	8
103.52	6
103.54	14
103.56	6
103.58	6
103.6	10
103.62	9
103.64	4
103.66	7
103.68	9
103.7	7
103.72	9
103.74	7
103.76	8
103.78	4
103.8	5
103.82	7
103.84	7
103.86	5
103.88	9
103.9	2
103.92	9
103.94	8
103.96	6
103.98	8
104	3
104.02	4
104.04	9
104.06	7
104.08	5
104.1	6
104.12	11
104.14	6
104.16	8
104.18	9
104.2	6
104.22	9
104.24	10
104.26	8
104.28	3
104.3	7
104.32	6
104.34	6
104.36	5
104.38	4
104.4	7
104.42	6
104.44	6
104.46	6
104.48	3
104.5	9
104.52	4
104.54	7
104.56	11
104.58	4
104.6	6
104.62	7
104.64	5
104.66	8
104.68	12
104.7	5
104.72	6
104.74	2
104.76	5
104.78	6
104.8	7
104.82	6
104.84	6
104.86	9
104.88	8
104.9	6
104.92	8
104.94	9
104.96	5
104.98	5
105	9
105.02	5
105.04	6
105.06	5
105.08	9
105.1	11
105.12	7
105.14	10
105.16	7
105.18	7
105.2	5
105.22	7
105.24	11
105.26	6
105.28	10
105.3	9
105.32	5
105.34	2
105.36	7
105.38	6
105.4	8
105.42	10
105.44	9
105.46	6
105.48	6
105.5	7
105.52	4
105.54	3
105.56	5
105.58	9
105.6	5
105.62	9
105.64	5
105.66	8
105.68	5
105.7	7
105.72	8
105.74	5
105.76	10
105.78	5
105.8	6
105.82	5
105.84	6
105.86	8
105.88	12
105.9	8
105.92	4
105.94	7
105.96	8
105.98	7
106	7
106.02	3
106.04	6
106.06	2
106.08	11
106.1	11
106.12	8
106.14	7
106.16	9
106.18	3
106.2	2
106.22	4
106.24	7
106.26	6
106.28	6
106.3	5
106.32	5
106.34	2
106.36	5
106.38	9
106.4	5
106.42	7
106.44	11
106.46	9
106.48	6
106.5	11
106.52	6
106.54	5
106.56	7
106.58	4
106.6	8
106.62	6
106.64	10
106.66	9
106.68	3
106.7	10
106.72	7
106.74	6
106.76	6
106.78	6
106.8	6
106.82	10
106.84	4
106.86	4
106.88	10
106.9	8
106.92	8
106.94	11
106.96	6
106.98	8
107	5
107.02	7
107.04	6
107.06	7
107.08	8
107.1	4
107.12	7
107.14	6
107.16	9
107.18	6
107.2	4
107.22	4
107.24	9
107.26	6
107.28	10
107.3	12
107.32	12
107.34	7
107.36	7
107.38	7
107.4	3
107.42	4
107.44	6
107.46	8
107.48	5
107.5	5
107.52	8
107.54	15
107.56	6
107.58	3
107.6	10
107.62	8
107.64	4
107.66	5
107.68	9
107.7	11
107.72	9
107.74	11
107.76	7
107.78	11
107.8	3
107.82	12
107.84	5
107.86	5
107.88	8
107.9	3
107.92	9
107.94	14
107.96	8
107.98	3
108	9
108.02	10
108.04	8
108.06	4
108.08	7
108.1	7
108.12	11
108.14	5
108.16	7
108.18	7
108.2	5
108.22	4
108.24	8
108.26	6
108.28	11
108.3	12
108.32	5
108.34	9
108.36	12
108.38	8
108.4	7
108.42	5
108.44	6
108.46	11
108.48	7
108.5	2
108.52	10
108.54	10
108.56	10
108.58	13
108.6	10
108.62	7
108.64	3
108.66	5
108.68	10
108.7	7
108.72	7
108.74	7
108.76	5
108.78	10
108.8	9
108.82	10
108.84	4
108.86	9
108.88	10
108.9	9
108.92	8
108.94	8
108.96	6
108.98	6
109	9
109.02	7
109.04	9
109.06	6
109.08	6
109.1	6
109.12	7
109.14	5
109.16	5
109.18	4
109.2	7
109.22	5
109.24	9
109.26	6
109.28	7
109.3	6
109.32	12
109.34	4
109.36	9
109.38	3
109.4	7
109.42	7
109.44	8
109.46	6
109.48	12
109.5	4
109.52	7
109.54	9
109.56	7
109.58	9
109.6	6
109.62	10
109.64	3
109.66	8
109.68	5
109.7	7
109.72	11
109.74	7
109.76	12
109.78	6
109.8	4
109.82	10
109.84	6
109.86	5
109.88	11
109.9	8
109.92	5
109.94	9
109.96	8
109.98	7
110	10
