Sample	
Comments	
Filename	C:\DOCUME~1\Alunos\Desktop\F740B_1S2022_Grupo1\amostra_c_20-120_002_17_03-05-22_20-18.raw
Goniometer	Miniflex goniometer
Attachment	Standard sample holder
Monochromater	None
ScanningMode	2Theta/Theta
ScanningType	Continuos Scanning
X-Ray	30kV/15mA
Divergence slit	Unknown
Scattering slit	4.2deg.
Receiving slit	0.3mm
Kb filter	
Start	20
Stop	120
Step	0.02
20	76
20.02	72
20.04	79
20.06	84
20.08	77
20.1	93
20.12	80
20.14	68
20.16	69
20.18	66
20.2	85
20.22	80
20.24	72
20.26	72
20.28	77
20.3	62
20.32	71
20.34	73
20.36	75
20.38	71
20.4	75
20.42	66
20.44	67
20.46	81
20.48	64
20.5	74
20.52	70
20.54	69
20.56	70
20.58	67
20.6	80
20.62	65
20.64	84
20.66	75
20.68	63
20.7	74
20.72	69
20.74	64
20.76	67
20.78	61
20.8	69
20.82	54
20.84	60
20.86	64
20.88	56
20.9	78
20.92	54
20.94	58
20.96	75
20.98	56
21	65
21.02	69
21.04	60
21.06	56
21.08	52
21.1	71
21.12	66
21.14	55
21.16	64
21.18	54
21.2	71
21.22	62
21.24	54
21.26	59
21.28	64
21.3	51
21.32	57
21.34	60
21.36	58
21.38	68
21.4	50
21.42	53
21.44	61
21.46	59
21.48	69
21.5	55
21.52	68
21.54	59
21.56	56
21.58	79
21.6	63
21.62	72
21.64	69
21.66	65
21.68	83
21.7	55
21.72	59
21.74	55
21.76	66
21.78	60
21.8	66
21.82	63
21.84	66
21.86	65
21.88	66
21.9	47
21.92	62
21.94	64
21.96	55
21.98	55
22	57
22.02	55
22.04	71
22.06	68
22.08	54
22.1	65
22.12	61
22.14	64
22.16	62
22.18	73
22.2	70
22.22	73
22.24	55
22.26	67
22.28	65
22.3	76
22.32	60
22.34	68
22.36	62
22.38	56
22.4	45
22.42	69
22.44	59
22.46	52
22.48	61
22.5	48
22.52	60
22.54	53
22.56	52
22.58	48
22.6	60
22.62	46
22.64	49
22.66	36
22.68	55
22.7	44
22.72	57
22.74	45
22.76	54
22.78	58
22.8	51
22.82	52
22.84	47
22.86	38
22.88	58
22.9	53
22.92	59
22.94	48
22.96	70
22.98	57
23	55
23.02	58
23.04	41
23.06	55
23.08	43
23.1	59
23.12	55
23.14	52
23.16	51
23.18	51
23.2	53
23.22	46
23.24	59
23.26	52
23.28	38
23.3	50
23.32	47
23.34	47
23.36	47
23.38	56
23.4	47
23.42	49
23.44	56
23.46	50
23.48	57
23.5	53
23.52	60
23.54	56
23.56	52
23.58	49
23.6	48
23.62	61
23.64	56
23.66	39
23.68	38
23.7	44
23.72	53
23.74	48
23.76	51
23.78	47
23.8	60
23.82	57
23.84	53
23.86	71
23.88	74
23.9	69
23.92	87
23.94	92
23.96	110
23.98	118
24	114
24.02	113
24.04	116
24.06	152
24.08	144
24.1	163
24.12	187
24.14	198
24.16	206
24.18	236
24.2	216
24.22	259
24.24	225
24.26	260
24.28	270
24.3	298
24.32	272
24.34	286
24.36	272
24.38	238
24.4	183
24.42	142
24.44	103
24.46	92
24.48	77
24.5	67
24.52	69
24.54	64
24.56	56
24.58	65
24.6	63
24.62	44
24.64	66
24.66	47
24.68	72
24.7	79
24.72	52
24.74	62
24.76	70
24.78	51
24.8	54
24.82	59
24.84	61
24.86	69
24.88	57
24.9	70
24.92	64
24.94	67
24.96	63
24.98	39
25	52
25.02	65
25.04	63
25.06	73
25.08	55
25.1	60
25.12	63
25.14	67
25.16	64
25.18	52
25.2	77
25.22	68
25.24	69
25.26	62
25.28	61
25.3	70
25.32	62
25.34	58
25.36	66
25.38	75
25.4	75
25.42	73
25.44	86
25.46	78
25.48	69
25.5	77
25.52	75
25.54	85
25.56	84
25.58	70
25.6	75
25.62	93
25.64	100
25.66	107
25.68	118
25.7	121
25.72	144
25.74	155
25.76	175
25.78	185
25.8	182
25.82	197
25.84	241
25.86	222
25.88	255
25.9	283
25.92	291
25.94	345
25.96	392
25.98	399
26	478
26.02	489
26.04	539
26.06	535
26.08	578
26.1	589
26.12	601
26.14	604
26.16	662
26.18	614
26.2	617
26.22	659
26.24	661
26.26	715
26.28	758
26.3	828
26.32	898
26.34	971
26.36	1078
26.38	1253
26.4	1598
26.42	2536
26.44	4774
26.46	8947
26.48	14823
26.5	23844
26.52	35978
26.54	46556
26.56	54556
26.58	59471
26.6	60906
26.62	58646
26.64	56443
26.66	53599
26.68	51435
26.7	50531
26.72	49587
26.74	48630
26.76	47640
26.78	46240
26.8	45304
26.82	44388
26.84	43362
26.86	42447
26.88	40863
26.9	39992
26.92	39531
26.94	39725
26.96	40280
26.98	41304
27	44292
27.02	48411
27.04	52090
27.06	58011
27.08	55980
27.1	30637
27.12	14783
27.14	8243
27.16	4852
27.18	3248
27.2	2360
27.22	1901
27.24	1546
27.26	1350
27.28	1230
27.3	1184
27.32	1045
27.34	1008
27.36	931
27.38	962
27.4	837
27.42	818
27.44	855
27.46	826
27.48	752
27.5	762
27.52	697
27.54	747
27.56	757
27.58	719
27.6	665
27.62	706
27.64	705
27.66	631
27.68	662
27.7	662
27.72	652
27.74	635
27.76	612
27.78	694
27.8	630
27.82	643
27.84	623
27.86	603
27.88	609
27.9	583
27.92	597
27.94	557
27.96	542
27.98	582
28	572
28.02	560
28.04	597
28.06	557
28.08	580
28.1	524
28.12	540
28.14	566
28.16	576
28.18	551
28.2	492
28.22	557
28.24	545
28.26	520
28.28	549
28.3	529
28.32	547
28.34	522
28.36	532
28.38	534
28.4	533
28.42	496
28.44	532
28.46	480
28.48	529
28.5	511
28.52	499
28.54	517
28.56	496
28.58	465
28.6	493
28.62	497
28.64	507
28.66	523
28.68	513
28.7	472
28.72	456
28.74	517
28.76	468
28.78	473
28.8	499
28.82	517
28.84	468
28.86	513
28.88	500
28.9	510
28.92	510
28.94	530
28.96	559
28.98	485
29	509
29.02	492
29.04	532
29.06	495
29.08	486
29.1	505
29.12	498
29.14	486
29.16	512
29.18	498
29.2	485
29.22	533
29.24	495
29.26	524
29.28	485
29.3	530
29.32	515
29.34	523
29.36	492
29.38	515
29.4	529
29.42	502
29.44	511
29.46	488
29.48	441
29.5	473
29.52	498
29.54	490
29.56	495
29.58	462
29.6	496
29.62	452
29.64	466
29.66	428
29.68	458
29.7	434
29.72	436
29.74	444
29.76	414
29.78	448
29.8	413
29.82	454
29.84	462
29.86	441
29.88	454
29.9	414
29.92	439
29.94	479
29.96	410
29.98	428
30	484
30.02	427
30.04	436
30.06	452
30.08	443
30.1	472
30.12	445
30.14	473
30.16	457
30.18	455
30.2	453
30.22	455
30.24	459
30.26	469
30.28	450
30.3	436
30.32	470
30.34	424
30.36	440
30.38	470
30.4	452
30.42	436
30.44	439
30.46	452
30.48	457
30.5	481
30.52	473
30.54	443
30.56	460
30.58	488
30.6	477
30.62	483
30.64	485
30.66	478
30.68	475
30.7	470
30.72	457
30.74	453
30.76	500
30.78	467
30.8	470
30.82	475
30.84	460
30.86	481
30.88	454
30.9	458
30.92	427
30.94	440
30.96	478
30.98	460
31	458
31.02	432
31.04	460
31.06	434
31.08	458
31.1	431
31.12	414
31.14	421
31.16	412
31.18	400
31.2	453
31.22	457
31.24	432
31.26	409
31.28	436
31.3	467
31.32	472
31.34	463
31.36	418
31.38	458
31.4	470
31.42	417
31.44	430
31.46	450
31.48	432
31.5	436
31.52	461
31.54	435
31.56	465
31.58	435
31.6	383
31.62	435
31.64	400
31.66	425
31.68	402
31.7	414
31.72	432
31.74	397
31.76	420
31.78	439
31.8	426
31.82	459
31.84	435
31.86	420
31.88	420
31.9	400
31.92	405
31.94	399
31.96	448
31.98	424
32	356
32.02	431
32.04	414
32.06	401
32.08	412
32.1	409
32.12	416
32.14	375
32.16	430
32.18	388
32.2	408
32.22	409
32.24	399
32.26	447
32.28	391
32.3	381
32.32	415
32.34	396
32.36	396
32.38	372
32.4	398
32.42	412
32.44	402
32.46	396
32.48	379
32.5	416
32.52	395
32.54	383
32.56	406
32.58	409
32.6	415
32.62	387
32.64	387
32.66	401
32.68	366
32.7	430
32.72	400
32.74	398
32.76	372
32.78	397
32.8	379
32.82	419
32.84	387
32.86	368
32.88	400
32.9	362
32.92	388
32.94	423
32.96	418
32.98	422
33	391
33.02	391
33.04	344
33.06	398
33.08	389
33.1	367
33.12	387
33.14	435
33.16	368
33.18	382
33.2	356
33.22	369
33.24	356
33.26	418
33.28	378
33.3	401
33.32	407
33.34	382
33.36	350
33.38	423
33.4	353
33.42	383
33.44	386
33.46	374
33.48	450
33.5	397
33.52	357
33.54	429
33.56	352
33.58	386
33.6	424
33.62	416
33.64	389
33.66	410
33.68	396
33.7	409
33.72	419
33.74	422
33.76	430
33.78	469
33.8	472
33.82	480
33.84	520
33.86	552
33.88	582
33.9	620
33.92	608
33.94	656
33.96	653
33.98	607
34	545
34.02	557
34.04	471
34.06	437
34.08	425
34.1	368
34.12	351
34.14	368
34.16	342
34.18	363
34.2	331
34.22	337
34.24	337
34.26	338
34.28	360
34.3	358
34.32	328
34.34	368
34.36	323
34.38	354
34.4	316
34.42	341
34.44	339
34.46	341
34.48	375
34.5	332
34.52	296
34.54	338
34.56	348
34.58	313
34.6	301
34.62	297
34.64	318
34.66	316
34.68	341
34.7	305
34.72	324
34.74	333
34.76	313
34.78	309
34.8	293
34.82	313
34.84	327
34.86	307
34.88	305
34.9	319
34.92	304
34.94	331
34.96	289
34.98	316
35	297
35.02	284
35.04	301
35.06	305
35.08	331
35.1	303
35.12	268
35.14	329
35.16	324
35.18	326
35.2	316
35.22	293
35.24	301
35.26	284
35.28	321
35.3	292
35.32	288
35.34	299
35.36	285
35.38	273
35.4	280
35.42	261
35.44	284
35.46	291
35.48	294
35.5	287
35.52	304
35.54	259
35.56	297
35.58	295
35.6	275
35.62	293
35.64	291
35.66	250
35.68	274
35.7	286
35.72	270
35.74	259
35.76	282
35.78	262
35.8	245
35.82	248
35.84	243
35.86	273
35.88	282
35.9	268
35.92	274
35.94	236
35.96	250
35.98	264
36	248
36.02	280
36.04	258
36.06	251
36.08	251
36.1	253
36.12	291
36.14	272
36.16	233
36.18	270
36.2	258
36.22	244
36.24	276
36.26	240
36.28	222
36.3	249
36.32	244
36.34	239
36.36	246
36.38	246
36.4	236
36.42	275
36.44	237
36.46	232
36.48	280
36.5	240
36.52	246
36.54	254
36.56	270
36.58	240
36.6	238
36.62	235
36.64	254
36.66	271
36.68	254
36.7	223
36.72	243
36.74	247
36.76	275
36.78	234
36.8	238
36.82	235
36.84	268
36.86	252
36.88	263
36.9	264
36.92	278
36.94	277
36.96	270
36.98	280
37	248
37.02	238
37.04	240
37.06	286
37.08	213
37.1	244
37.12	228
37.14	207
37.16	197
37.18	253
37.2	228
37.22	233
37.24	210
37.26	231
37.28	224
37.3	221
37.32	213
37.34	212
37.36	219
37.38	213
37.4	211
37.42	228
37.44	210
37.46	216
37.48	210
37.5	204
37.52	211
37.54	207
37.56	199
37.58	210
37.6	206
37.62	236
37.64	173
37.66	215
37.68	204
37.7	207
37.72	212
37.74	212
37.76	176
37.78	201
37.8	188
37.82	187
37.84	205
37.86	211
37.88	202
37.9	189
37.92	205
37.94	180
37.96	201
37.98	211
38	206
38.02	200
38.04	206
38.06	184
38.08	171
38.1	169
38.12	174
38.14	192
38.16	171
38.18	194
38.2	181
38.22	183
38.24	187
38.26	155
38.28	189
38.3	196
38.32	173
38.34	177
38.36	170
38.38	173
38.4	178
38.42	191
38.44	169
38.46	173
38.48	179
38.5	157
38.52	168
38.54	166
38.56	164
38.58	154
38.6	202
38.62	168
38.64	166
38.66	166
38.68	168
38.7	190
38.72	172
38.74	185
38.76	171
38.78	163
38.8	166
38.82	169
38.84	163
38.86	136
38.88	179
38.9	178
38.92	182
38.94	156
38.96	146
38.98	164
39	149
39.02	152
39.04	150
39.06	167
39.08	151
39.1	145
39.12	141
39.14	160
39.16	173
39.18	137
39.2	161
39.22	178
39.24	153
39.26	156
39.28	151
39.3	148
39.32	149
39.34	145
39.36	135
39.38	147
39.4	138
39.42	158
39.44	152
39.46	138
39.48	148
39.5	152
39.52	139
39.54	150
39.56	122
39.58	146
39.6	148
39.62	153
39.64	127
39.66	139
39.68	139
39.7	132
39.72	145
39.74	136
39.76	144
39.78	146
39.8	140
39.82	129
39.84	127
39.86	143
39.88	154
39.9	125
39.92	133
39.94	148
39.96	126
39.98	136
40	128
40.02	134
40.04	125
40.06	117
40.08	115
40.1	125
40.12	127
40.14	118
40.16	116
40.18	135
40.2	141
40.22	101
40.24	114
40.26	126
40.28	146
40.3	125
40.32	98
40.34	112
40.36	130
40.38	124
40.4	117
40.42	103
40.44	121
40.46	144
40.48	127
40.5	109
40.52	129
40.54	121
40.56	111
40.58	114
40.6	108
40.62	115
40.64	106
40.66	112
40.68	115
40.7	108
40.72	105
40.74	120
40.76	119
40.78	102
40.8	116
40.82	102
40.84	110
40.86	101
40.88	107
40.9	124
40.92	127
40.94	93
40.96	109
40.98	108
41	89
41.02	116
41.04	102
41.06	106
41.08	105
41.1	116
41.12	113
41.14	96
41.16	93
41.18	103
41.2	104
41.22	95
41.24	111
41.26	86
41.28	84
41.3	84
41.32	90
41.34	87
41.36	95
41.38	96
41.4	114
41.42	99
41.44	88
41.46	80
41.48	97
41.5	92
41.52	104
41.54	81
41.56	85
41.58	86
41.6	101
41.62	97
41.64	70
41.66	84
41.68	91
41.7	92
41.72	82
41.74	91
41.76	93
41.78	82
41.8	83
41.82	81
41.84	69
41.86	76
41.88	63
41.9	80
41.92	88
41.94	80
41.96	80
41.98	80
42	86
42.02	89
42.04	77
42.06	72
42.08	75
42.1	73
42.12	98
42.14	72
42.16	89
42.18	64
42.2	91
42.22	72
42.24	78
42.26	78
42.28	76
42.3	82
42.32	95
42.34	78
42.36	80
42.38	69
42.4	76
42.42	81
42.44	85
42.46	72
42.48	82
42.5	87
42.52	76
42.54	83
42.56	77
42.58	62
42.6	71
42.62	84
42.64	68
42.66	54
42.68	64
42.7	70
42.72	75
42.74	70
42.76	51
42.78	79
42.8	61
42.82	65
42.84	73
42.86	67
42.88	67
42.9	74
42.92	74
42.94	73
42.96	69
42.98	67
43	65
43.02	54
43.04	81
43.06	66
43.08	53
43.1	66
43.12	60
43.14	59
43.16	71
43.18	77
43.2	61
43.22	66
43.24	51
43.26	62
43.28	65
43.3	48
43.32	58
43.34	50
43.36	66
43.38	46
43.4	52
43.42	70
43.44	47
43.46	63
43.48	63
43.5	50
43.52	65
43.54	60
43.56	64
43.58	54
43.6	60
43.62	65
43.64	55
43.66	61
43.68	47
43.7	66
43.72	57
43.74	52
43.76	60
43.78	67
43.8	50
43.82	58
43.84	51
43.86	65
43.88	39
43.9	51
43.92	59
43.94	55
43.96	64
43.98	50
44	40
44.02	64
44.04	55
44.06	44
44.08	50
44.1	67
44.12	63
44.14	61
44.16	64
44.18	63
44.2	58
44.22	59
44.24	69
44.26	68
44.28	51
44.3	57
44.32	68
44.34	71
44.36	84
44.38	84
44.4	83
44.42	84
44.44	87
44.46	80
44.48	53
44.5	69
44.52	68
44.54	55
44.56	66
44.58	57
44.6	59
44.62	48
44.64	41
44.66	50
44.68	60
44.7	40
44.72	35
44.74	53
44.76	45
44.78	54
44.8	44
44.82	55
44.84	46
44.86	40
44.88	46
44.9	53
44.92	42
44.94	60
44.96	36
44.98	48
45	37
45.02	51
45.04	59
45.06	35
45.08	47
45.1	44
45.12	47
45.14	53
45.16	42
45.18	63
45.2	57
45.22	49
45.24	42
45.26	38
45.28	51
45.3	62
45.32	48
45.34	53
45.36	45
45.38	33
45.4	56
45.42	43
45.44	36
45.46	35
45.48	50
45.5	53
45.52	35
45.54	30
45.56	43
45.58	46
45.6	23
45.62	53
45.64	34
45.66	35
45.68	43
45.7	30
45.72	34
45.74	28
45.76	33
45.78	34
45.8	37
45.82	36
45.84	46
45.86	31
45.88	34
45.9	49
45.92	31
45.94	36
45.96	26
45.98	34
46	47
46.02	29
46.04	29
46.06	45
46.08	27
46.1	36
46.12	33
46.14	34
46.16	38
46.18	43
46.2	35
46.22	35
46.24	30
46.26	35
46.28	28
46.3	40
46.32	29
46.34	33
46.36	30
46.38	27
46.4	26
46.42	35
46.44	31
46.46	30
46.48	39
46.5	19
46.52	32
46.54	24
46.56	28
46.58	26
46.6	25
46.62	39
46.64	30
46.66	25
46.68	39
46.7	38
46.72	19
46.74	40
46.76	23
46.78	31
46.8	22
46.82	29
46.84	31
46.86	32
46.88	27
46.9	21
46.92	27
46.94	30
46.96	31
46.98	31
47	32
47.02	30
47.04	23
47.06	28
47.08	37
47.1	25
47.12	24
47.14	21
47.16	32
47.18	34
47.2	24
47.22	33
47.24	25
47.26	22
47.28	19
47.3	28
47.32	25
47.34	26
47.36	30
47.38	23
47.4	27
47.42	29
47.44	29
47.46	21
47.48	23
47.5	22
47.52	25
47.54	36
47.56	25
47.58	26
47.6	30
47.62	24
47.64	30
47.66	22
47.68	26
47.7	23
47.72	33
47.74	15
47.76	26
47.78	32
47.8	29
47.82	31
47.84	25
47.86	17
47.88	28
47.9	22
47.92	24
47.94	23
47.96	25
47.98	18
48	25
48.02	30
48.04	21
48.06	20
48.08	25
48.1	23
48.12	18
48.14	23
48.16	35
48.18	25
48.2	31
48.22	26
48.24	31
48.26	32
48.28	27
48.3	25
48.32	22
48.34	19
48.36	26
48.38	38
48.4	38
48.42	27
48.44	25
48.46	29
48.48	32
48.5	28
48.52	22
48.54	30
48.56	30
48.58	32
48.6	38
48.62	33
48.64	40
48.66	73
48.68	87
48.7	94
48.72	122
48.74	116
48.76	129
48.78	122
48.8	104
48.82	87
48.84	73
48.86	74
48.88	42
48.9	39
48.92	46
48.94	27
48.96	33
48.98	33
49	42
49.02	31
49.04	49
49.06	46
49.08	45
49.1	48
49.12	44
49.14	62
49.16	60
49.18	60
49.2	61
49.22	55
49.24	53
49.26	58
49.28	69
49.3	58
49.32	54
49.34	78
49.36	58
49.38	52
49.4	53
49.42	44
49.44	55
49.46	30
49.48	34
49.5	32
49.52	27
49.54	28
49.56	12
49.58	17
49.6	28
49.62	19
49.64	19
49.66	30
49.68	17
49.7	23
49.72	26
49.74	23
49.76	28
49.78	16
49.8	26
49.82	11
49.84	27
49.86	22
49.88	13
49.9	28
49.92	17
49.94	25
49.96	14
49.98	18
50	15
50.02	19
50.04	27
50.06	24
50.08	19
50.1	21
50.12	19
50.14	24
50.16	28
50.18	20
50.2	26
50.22	18
50.24	15
50.26	17
50.28	16
50.3	20
50.32	22
50.34	18
50.36	15
50.38	18
50.4	14
50.42	17
50.44	20
50.46	32
50.48	22
50.5	19
50.52	21
50.54	17
50.56	24
50.58	20
50.6	27
50.62	15
50.64	29
50.66	15
50.68	15
50.7	19
50.72	17
50.74	25
50.76	20
50.78	19
50.8	21
50.82	29
50.84	20
50.86	21
50.88	15
50.9	26
50.92	16
50.94	21
50.96	18
50.98	24
51	16
51.02	19
51.04	18
51.06	10
51.08	18
51.1	19
51.12	15
51.14	13
51.16	21
51.18	24
51.2	21
51.22	16
51.24	21
51.26	23
51.28	22
51.3	15
51.32	23
51.34	32
51.36	28
51.38	17
51.4	19
51.42	11
51.44	24
51.46	17
51.48	21
51.5	14
51.52	20
51.54	22
51.56	18
51.58	14
51.6	19
51.62	12
51.64	19
51.66	20
51.68	19
51.7	17
51.72	26
51.74	19
51.76	16
51.78	19
51.8	15
51.82	23
51.84	16
51.86	28
51.88	10
51.9	14
51.92	19
51.94	18
51.96	23
51.98	17
52	17
52.02	16
52.04	23
52.06	21
52.08	26
52.1	16
52.12	21
52.14	24
52.16	23
52.18	24
52.2	14
52.22	16
52.24	19
52.26	22
52.28	19
52.3	22
52.32	28
52.34	17
52.36	21
52.38	15
52.4	16
52.42	23
52.44	28
52.46	30
52.48	23
52.5	19
52.52	28
52.54	25
52.56	29
52.58	21
52.6	28
52.62	30
52.64	29
52.66	23
52.68	31
52.7	32
52.72	34
52.74	23
52.76	37
52.78	30
52.8	52
52.82	45
52.84	42
52.86	40
52.88	52
52.9	61
52.92	50
52.94	53
52.96	69
52.98	57
53	80
53.02	62
53.04	81
53.06	91
53.08	53
53.1	66
53.12	68
53.14	58
53.16	72
53.18	71
53.2	70
53.22	76
53.24	59
53.26	71
53.28	73
53.3	60
53.32	72
53.34	72
53.36	69
53.38	61
53.4	81
53.42	71
53.44	81
53.46	63
53.48	78
53.5	71
53.52	78
53.54	73
53.56	83
53.58	68
53.6	77
53.62	79
53.64	68
53.66	88
53.68	77
53.7	84
53.72	77
53.74	79
53.76	70
53.78	72
53.8	99
53.82	70
53.84	94
53.86	96
53.88	92
53.9	109
53.92	79
53.94	98
53.96	86
53.98	93
54	96
54.02	102
54.04	101
54.06	86
54.08	106
54.1	107
54.12	99
54.14	124
54.16	103
54.18	120
54.2	118
54.22	110
54.24	150
54.26	128
54.28	143
54.3	153
54.32	160
54.34	169
54.36	205
54.38	214
54.4	236
54.42	224
54.44	245
54.46	297
54.48	318
54.5	361
54.52	428
54.54	663
54.56	967
54.58	1552
54.6	2518
54.62	3641
54.64	5416
54.66	8192
54.68	10815
54.7	14450
54.72	19037
54.74	24078
54.76	28784
54.78	34206
54.8	39739
54.82	44832
54.84	49056
54.86	52515
54.88	55383
54.9	58034
54.92	59654
54.94	61224
54.96	62052
54.98	61913
55	62326
55.02	61919
55.04	60616
55.06	56115
55.08	49115
55.1	40130
55.12	32669
55.14	27474
55.16	22834
55.18	17415
55.2	11952
55.22	7096
55.24	3803
55.26	2006
55.28	1201
55.3	872
55.32	666
55.34	500
55.36	412
55.38	364
55.4	302
55.42	308
55.44	246
55.46	266
55.48	221
55.5	222
55.52	223
55.54	202
55.56	196
55.58	186
55.6	212
55.62	192
55.64	178
55.66	162
55.68	163
55.7	187
55.72	135
55.74	145
55.76	130
55.78	148
55.8	154
55.82	135
55.84	146
55.86	132
55.88	117
55.9	164
55.92	138
55.94	117
55.96	118
55.98	116
56	123
56.02	115
56.04	109
56.06	117
56.08	114
56.1	138
56.12	116
56.14	113
56.16	96
56.18	119
56.2	104
56.22	112
56.24	90
56.26	104
56.28	104
56.3	95
56.32	106
56.34	93
56.36	102
56.38	97
56.4	100
56.42	90
56.44	91
56.46	102
56.48	93
56.5	117
56.52	83
56.54	95
56.56	77
56.58	79
56.6	94
56.62	93
56.64	88
56.66	80
56.68	90
56.7	87
56.72	90
56.74	77
56.76	77
56.78	85
56.8	81
56.82	85
56.84	65
56.86	83
56.88	73
56.9	81
56.92	86
56.94	73
56.96	78
56.98	77
57	83
57.02	91
57.04	74
57.06	71
57.08	92
57.1	68
57.12	69
57.14	64
57.16	74
57.18	78
57.2	81
57.22	88
57.24	78
57.26	92
57.28	66
57.3	77
57.32	65
57.34	62
57.36	77
57.38	62
57.4	73
57.42	68
57.44	66
57.46	88
57.48	65
57.5	68
57.52	74
57.54	71
57.56	75
57.58	58
57.6	62
57.62	58
57.64	75
57.66	76
57.68	72
57.7	67
57.72	69
57.74	73
57.76	63
57.78	67
57.8	63
57.82	64
57.84	90
57.86	66
57.88	72
57.9	59
57.92	72
57.94	65
57.96	83
57.98	75
58	86
58.02	73
58.04	71
58.06	63
58.08	65
58.1	58
58.12	58
58.14	73
58.16	78
58.18	57
58.2	66
58.22	74
58.24	72
58.26	83
58.28	58
58.3	65
58.32	54
58.34	58
58.36	61
58.38	50
58.4	63
58.42	67
58.44	54
58.46	61
58.48	68
58.5	66
58.52	63
58.54	71
58.56	61
58.58	58
58.6	59
58.62	71
58.64	57
58.66	71
58.68	61
58.7	66
58.72	59
58.74	69
58.76	51
58.78	69
58.8	57
58.82	71
58.84	73
58.86	55
58.88	70
58.9	64
58.92	65
58.94	52
58.96	55
58.98	52
59	53
59.02	60
59.04	52
59.06	56
59.08	62
59.1	47
59.12	65
59.14	58
59.16	55
59.18	52
59.2	62
59.22	66
59.24	68
59.26	59
59.28	67
59.3	76
59.32	68
59.34	71
59.36	58
59.38	54
59.4	64
59.42	63
59.44	68
59.46	73
59.48	67
59.5	54
59.52	80
59.54	59
59.56	66
59.58	80
59.6	70
59.62	51
59.64	59
59.66	70
59.68	54
59.7	69
59.72	57
59.74	41
59.76	54
59.78	62
59.8	68
59.82	65
59.84	49
59.86	47
59.88	54
59.9	55
59.92	44
59.94	71
59.96	56
59.98	68
60	56
60.02	54
60.04	84
60.06	66
60.08	83
60.1	88
60.12	66
60.14	81
60.16	68
60.18	57
60.2	68
60.22	71
60.24	73
60.26	63
60.28	66
60.3	58
60.32	67
60.34	82
60.36	74
60.38	74
60.4	69
60.42	74
60.44	67
60.46	66
60.48	61
60.5	60
60.52	58
60.54	57
60.56	71
60.58	59
60.6	80
60.62	59
60.64	42
60.66	66
60.68	58
60.7	53
60.72	66
60.74	54
60.76	57
60.78	53
60.8	45
60.82	62
60.84	72
60.86	59
60.88	57
60.9	55
60.92	52
60.94	55
60.96	60
60.98	64
61	51
61.02	53
61.04	67
61.06	51
61.08	58
61.1	58
61.12	69
61.14	62
61.16	60
61.18	68
61.2	58
61.22	58
61.24	48
61.26	59
61.28	55
61.3	43
61.32	55
61.34	57
61.36	52
61.38	66
61.4	52
61.42	57
61.44	65
61.46	52
61.48	51
61.5	55
61.52	69
61.54	50
61.56	47
61.58	48
61.6	68
61.62	55
61.64	62
61.66	37
61.68	61
61.7	52
61.72	66
61.74	54
61.76	52
61.78	65
61.8	63
61.82	58
61.84	49
61.86	61
61.88	58
61.9	67
61.92	74
61.94	61
61.96	56
61.98	50
62	56
62.02	53
62.04	65
62.06	72
62.08	50
62.1	56
62.12	66
62.14	58
62.16	54
62.18	57
62.2	59
62.22	63
62.24	49
62.26	54
62.28	58
62.3	51
62.32	57
62.34	58
62.36	49
62.38	71
62.4	51
62.42	63
62.44	57
62.46	57
62.48	59
62.5	51
62.52	67
62.54	57
62.56	61
62.58	62
62.6	53
62.62	50
62.64	58
62.66	57
62.68	58
62.7	69
62.72	53
62.74	65
62.76	65
62.78	52
62.8	69
62.82	64
62.84	56
62.86	62
62.88	59
62.9	62
62.92	67
62.94	51
62.96	63
62.98	62
63	61
63.02	56
63.04	64
63.06	64
63.08	55
63.1	64
63.12	62
63.14	68
63.16	55
63.18	58
63.2	61
63.22	63
63.24	64
63.26	64
63.28	65
63.3	75
63.32	62
63.34	67
63.36	77
63.38	56
63.4	64
63.42	55
63.44	56
63.46	90
63.48	66
63.5	53
63.52	56
63.54	67
63.56	62
63.58	59
63.6	62
63.62	63
63.64	58
63.66	71
63.68	54
63.7	54
63.72	56
63.74	59
63.76	56
63.78	63
63.8	59
63.82	61
63.84	73
63.86	59
63.88	62
63.9	71
63.92	50
63.94	52
63.96	65
63.98	57
64	45
64.02	54
64.04	68
64.06	77
64.08	64
64.1	58
64.12	55
64.14	50
64.16	50
64.18	71
64.2	57
64.22	63
64.24	64
64.26	55
64.28	55
64.3	60
64.32	65
64.34	58
64.36	37
64.38	58
64.4	62
64.42	60
64.44	41
64.46	57
64.48	52
64.5	56
64.52	68
64.54	54
64.56	68
64.58	55
64.6	63
64.62	48
64.64	52
64.66	54
64.68	62
64.7	54
64.72	66
64.74	55
64.76	46
64.78	66
64.8	55
64.82	57
64.84	54
64.86	50
64.88	49
64.9	56
64.92	61
64.94	56
64.96	58
64.98	60
65	62
65.02	64
65.04	55
65.06	42
65.08	50
65.1	58
65.12	50
65.14	52
65.16	46
65.18	60
65.2	52
65.22	49
65.24	59
65.26	55
65.28	58
65.3	49
65.32	65
65.34	60
65.36	63
65.38	47
65.4	56
65.42	53
65.44	55
65.46	58
65.48	53
65.5	52
65.52	54
65.54	69
65.56	56
65.58	43
65.6	69
65.62	63
65.64	51
65.66	68
65.68	59
65.7	70
65.72	50
65.74	53
65.76	65
65.78	50
65.8	57
65.82	57
65.84	64
65.86	40
65.88	52
65.9	52
65.92	57
65.94	59
65.96	50
65.98	43
66	58
66.02	48
66.04	57
66.06	57
66.08	56
66.1	65
66.12	45
66.14	46
66.16	63
66.18	55
66.2	59
66.22	61
66.24	49
66.26	41
66.28	51
66.3	56
66.32	57
66.34	53
66.36	52
66.38	43
66.4	50
66.42	57
66.44	57
66.46	48
66.48	73
66.5	54
66.52	56
66.54	60
66.56	50
66.58	53
66.6	67
66.62	42
66.64	72
66.66	45
66.68	51
66.7	65
66.72	55
66.74	45
66.76	61
66.78	52
66.8	49
66.82	64
66.84	54
66.86	60
66.88	55
66.9	65
66.92	53
66.94	51
66.96	56
66.98	38
67	63
67.02	51
67.04	56
67.06	49
67.08	63
67.1	55
67.12	46
67.14	54
67.16	50
67.18	47
67.2	65
67.22	40
67.24	54
67.26	56
67.28	50
67.3	60
67.32	54
67.34	57
67.36	62
67.38	57
67.4	64
67.42	63
67.44	68
67.46	56
67.48	50
67.5	54
67.52	43
67.54	44
67.56	60
67.58	58
67.6	52
67.62	68
67.64	55
67.66	59
67.68	46
67.7	38
67.72	60
67.74	48
67.76	51
67.78	51
67.8	55
67.82	49
67.84	51
67.86	46
67.88	42
67.9	48
67.92	47
67.94	45
67.96	51
67.98	49
68	48
68.02	53
68.04	37
68.06	71
68.08	47
68.1	51
68.12	42
68.14	60
68.16	42
68.18	44
68.2	42
68.22	47
68.24	52
68.26	39
68.28	47
68.3	45
68.32	46
68.34	42
68.36	60
68.38	52
68.4	51
68.42	54
68.44	41
68.46	61
68.48	59
68.5	62
68.52	44
68.54	45
68.56	50
68.58	53
68.6	50
68.62	58
68.64	59
68.66	52
68.68	44
68.7	57
68.72	57
68.74	48
68.76	46
68.78	38
68.8	59
68.82	50
68.84	46
68.86	61
68.88	35
68.9	45
68.92	45
68.94	44
68.96	43
68.98	45
69	51
69.02	46
69.04	54
69.06	51
69.08	57
69.1	41
69.12	40
69.14	54
69.16	47
69.18	56
69.2	49
69.22	55
69.24	60
69.26	53
69.28	65
69.3	41
69.32	51
69.34	44
69.36	44
69.38	51
69.4	43
69.42	49
69.44	54
69.46	49
69.48	50
69.5	43
69.52	41
69.54	54
69.56	48
69.58	44
69.6	53
69.62	53
69.64	53
69.66	55
69.68	62
69.7	55
69.72	55
69.74	59
69.76	52
69.78	45
69.8	47
69.82	42
69.84	48
69.86	49
69.88	51
69.9	43
69.92	51
69.94	48
69.96	52
69.98	44
70	54
70.02	53
70.04	51
70.06	55
70.08	60
70.1	47
70.12	50
70.14	59
70.16	47
70.18	55
70.2	59
70.22	37
70.24	43
70.26	48
70.28	43
70.3	51
70.32	49
70.34	65
70.36	49
70.38	53
70.4	54
70.42	55
70.44	51
70.46	56
70.48	47
70.5	54
70.52	49
70.54	55
70.56	52
70.58	63
70.6	69
70.62	78
70.64	76
70.66	79
70.68	82
70.7	83
70.72	73
70.74	81
70.76	102
70.78	93
70.8	87
70.82	88
70.84	90
70.86	91
70.88	83
70.9	80
70.92	74
70.94	62
70.96	90
70.98	81
71	69
71.02	57
71.04	65
71.06	49
71.08	49
71.1	42
71.12	51
71.14	50
71.16	39
71.18	65
71.2	38
71.22	48
71.24	52
71.26	57
71.28	56
71.3	43
71.32	41
71.34	47
71.36	49
71.38	48
71.4	46
71.42	50
71.44	46
71.46	59
71.48	51
71.5	34
71.52	32
71.54	44
71.56	58
71.58	47
71.6	42
71.62	41
71.64	42
71.66	52
71.68	39
71.7	40
71.72	50
71.74	62
71.76	45
71.78	38
71.8	40
71.82	47
71.84	53
71.86	42
71.88	39
71.9	44
71.92	48
71.94	44
71.96	52
71.98	41
72	44
72.02	44
72.04	43
72.06	37
72.08	48
72.1	41
72.12	40
72.14	52
72.16	39
72.18	49
72.2	44
72.22	38
72.24	41
72.26	44
72.28	47
72.3	39
72.32	43
72.34	41
72.36	38
72.38	42
72.4	48
72.42	37
72.44	39
72.46	38
72.48	40
72.5	37
72.52	48
72.54	48
72.56	39
72.58	26
72.6	51
72.62	42
72.64	46
72.66	39
72.68	45
72.7	45
72.72	45
72.74	48
72.76	38
72.78	44
72.8	37
72.82	42
72.84	42
72.86	44
72.88	39
72.9	45
72.92	40
72.94	41
72.96	44
72.98	42
73	41
73.02	40
73.04	42
73.06	42
73.08	52
73.1	46
73.12	45
73.14	41
73.16	42
73.18	41
73.2	39
73.22	31
73.24	50
73.26	48
73.28	45
73.3	40
73.32	57
73.34	43
73.36	52
73.38	40
73.4	40
73.42	47
73.44	48
73.46	40
73.48	43
73.5	46
73.52	44
73.54	42
73.56	44
73.58	41
73.6	35
73.62	31
73.64	50
73.66	39
73.68	36
73.7	50
73.72	33
73.74	42
73.76	38
73.78	45
73.8	45
73.82	47
73.84	39
73.86	43
73.88	37
73.9	36
73.92	42
73.94	40
73.96	38
73.98	39
74	58
74.02	43
74.04	40
74.06	49
74.08	44
74.1	36
74.12	47
74.14	39
74.16	52
74.18	41
74.2	28
74.22	40
74.24	37
74.26	37
74.28	30
74.3	41
74.32	34
74.34	42
74.36	37
74.38	39
74.4	35
74.42	37
74.44	44
74.46	44
74.48	37
74.5	42
74.52	35
74.54	45
74.56	27
74.58	52
74.6	35
74.62	26
74.64	42
74.66	45
74.68	39
74.7	29
74.72	39
74.74	36
74.76	41
74.78	43
74.8	31
74.82	24
74.84	39
74.86	34
74.88	35
74.9	36
74.92	43
74.94	35
74.96	33
74.98	55
75	45
75.02	49
75.04	46
75.06	50
75.08	30
75.1	41
75.12	39
75.14	32
75.16	46
75.18	33
75.2	31
75.22	42
75.24	32
75.26	35
75.28	29
75.3	25
75.32	45
75.34	37
75.36	46
75.38	39
75.4	42
75.42	47
75.44	36
75.46	45
75.48	38
75.5	36
75.52	50
75.54	51
75.56	42
75.58	31
75.6	35
75.62	43
75.64	33
75.66	45
75.68	37
75.7	42
75.72	38
75.74	43
75.76	43
75.78	43
75.8	41
75.82	35
75.84	32
75.86	41
75.88	34
75.9	37
75.92	45
75.94	41
75.96	40
75.98	32
76	39
76.02	36
76.04	38
76.06	28
76.08	35
76.1	36
76.12	40
76.14	35
76.16	32
76.18	35
76.2	42
76.22	37
76.24	30
76.26	41
76.28	30
76.3	28
76.32	31
76.34	38
76.36	44
76.38	41
76.4	37
76.42	32
76.44	33
76.46	31
76.48	31
76.5	44
76.52	38
76.54	42
76.56	37
76.58	41
76.6	41
76.62	35
76.64	24
76.66	32
76.68	40
76.7	27
76.72	39
76.74	31
76.76	41
76.78	42
76.8	20
76.82	36
76.84	41
76.86	38
76.88	46
76.9	30
76.92	30
76.94	38
76.96	40
76.98	31
77	47
77.02	43
77.04	51
77.06	45
77.08	38
77.1	55
77.12	47
77.14	40
77.16	40
77.18	46
77.2	54
77.22	44
77.24	44
77.26	34
77.28	54
77.3	44
77.32	39
77.34	34
77.36	53
77.38	34
77.4	33
77.42	44
77.44	33
77.46	24
77.48	30
77.5	43
77.52	39
77.54	39
77.56	27
77.58	33
77.6	42
77.62	31
77.64	35
77.66	40
77.68	49
77.7	37
77.72	49
77.74	43
77.76	47
77.78	39
77.8	42
77.82	37
77.84	52
77.86	39
77.88	51
77.9	46
77.92	32
77.94	38
77.96	42
77.98	37
78	33
78.02	35
78.04	33
78.06	37
78.08	33
78.1	34
78.12	34
78.14	30
78.16	25
78.18	30
78.2	39
78.22	35
78.24	30
78.26	46
78.28	25
78.3	29
78.32	26
78.34	36
78.36	30
78.38	33
78.4	30
78.42	27
78.44	25
78.46	33
78.48	32
78.5	38
78.52	42
78.54	27
78.56	31
78.58	26
78.6	36
78.62	32
78.64	30
78.66	32
78.68	47
78.7	35
78.72	31
78.74	39
78.76	34
78.78	33
78.8	30
78.82	27
78.84	25
78.86	36
78.88	23
78.9	33
78.92	26
78.94	32
78.96	36
78.98	38
79	28
79.02	32
79.04	41
79.06	27
79.08	38
79.1	32
79.12	39
79.14	26
79.16	31
79.18	28
79.2	27
79.22	35
79.24	29
79.26	30
79.28	25
79.3	33
79.32	35
79.34	30
79.36	29
79.38	35
79.4	32
79.42	30
79.44	31
79.46	31
79.48	27
79.5	30
79.52	27
79.54	32
79.56	36
79.58	29
79.6	29
79.62	24
79.64	23
79.66	30
79.68	33
79.7	35
79.72	36
79.74	24
79.76	36
79.78	32
79.8	31
79.82	27
79.84	31
79.86	19
79.88	34
79.9	23
79.92	25
79.94	23
79.96	26
79.98	33
80	26
80.02	42
80.04	33
80.06	24
80.08	32
80.1	22
80.12	34
80.14	26
80.16	31
80.18	32
80.2	31
80.22	43
80.24	19
80.26	18
80.28	31
80.3	32
80.32	23
80.34	23
80.36	20
80.38	31
80.4	38
80.42	27
80.44	28
80.46	33
80.48	27
80.5	29
80.52	24
80.54	26
80.56	26
80.58	25
80.6	33
80.62	21
80.64	48
80.66	31
80.68	28
80.7	28
80.72	24
80.74	43
80.76	29
80.78	23
80.8	30
80.82	30
80.84	30
80.86	32
80.88	27
80.9	30
80.92	23
80.94	31
80.96	20
80.98	34
81	35
81.02	27
81.04	25
81.06	25
81.08	23
81.1	22
81.12	30
81.14	30
81.16	37
81.18	37
81.2	30
81.22	29
81.24	39
81.26	21
81.28	24
81.3	28
81.32	23
81.34	24
81.36	39
81.38	27
81.4	28
81.42	14
81.44	35
81.46	30
81.48	29
81.5	24
81.52	23
81.54	31
81.56	22
81.58	28
81.6	27
81.62	25
81.64	25
81.66	25
81.68	31
81.7	24
81.72	39
81.74	31
81.76	29
81.78	26
81.8	20
81.82	29
81.84	23
81.86	16
81.88	29
81.9	19
81.92	29
81.94	26
81.96	29
81.98	24
82	35
82.02	26
82.04	29
82.06	33
82.08	27
82.1	32
82.12	16
82.14	18
82.16	20
82.18	26
82.2	34
82.22	41
82.24	22
82.26	36
82.28	20
82.3	25
82.32	26
82.34	12
82.36	21
82.38	28
82.4	32
82.42	24
82.44	39
82.46	28
82.48	34
82.5	22
82.52	31
82.54	32
82.56	24
82.58	24
82.6	32
82.62	35
82.64	19
82.66	27
82.68	30
82.7	28
82.72	30
82.74	36
82.76	31
82.78	19
82.8	23
82.82	32
82.84	36
82.86	33
82.88	35
82.9	28
82.92	20
82.94	26
82.96	24
82.98	37
83	21
83.02	26
83.04	34
83.06	25
83.08	26
83.1	27
83.12	20
83.14	22
83.16	22
83.18	21
83.2	28
83.22	26
83.24	19
83.26	24
83.28	29
83.3	21
83.32	22
83.34	29
83.36	27
83.38	30
83.4	33
83.42	17
83.44	29
83.46	35
83.48	28
83.5	28
83.52	28
83.54	28
83.56	35
83.58	32
83.6	25
83.62	28
83.64	29
83.66	35
83.68	33
83.7	31
83.72	39
83.74	28
83.76	23
83.78	27
83.8	37
83.82	35
83.84	31
83.86	28
83.88	38
83.9	28
83.92	33
83.94	35
83.96	30
83.98	29
84	22
84.02	39
84.04	34
84.06	24
84.08	41
84.1	26
84.12	23
84.14	32
84.16	35
84.18	31
84.2	38
84.22	41
84.24	36
84.26	31
84.28	33
84.3	36
84.32	34
84.34	30
84.36	36
84.38	34
84.4	32
84.42	32
84.44	43
84.46	32
84.48	31
84.5	27
84.52	36
84.54	29
84.56	57
84.58	39
84.6	34
84.62	34
84.64	36
84.66	30
84.68	34
84.7	34
84.72	43
84.74	41
84.76	44
84.78	53
84.8	35
84.82	41
84.84	38
84.86	32
84.88	36
84.9	36
84.92	34
84.94	38
84.96	29
84.98	32
85	40
85.02	34
85.04	26
85.06	30
85.08	48
85.1	35
85.12	37
85.14	28
85.16	38
85.18	36
85.2	29
85.22	27
85.24	36
85.26	34
85.28	29
85.3	40
85.32	39
85.34	34
85.36	46
85.38	33
85.4	30
85.42	45
85.44	43
85.46	42
85.48	34
85.5	39
85.52	36
85.54	31
85.56	44
85.58	33
85.6	41
85.62	46
85.64	47
85.66	26
85.68	52
85.7	39
85.72	37
85.74	41
85.76	30
85.78	41
85.8	49
85.82	27
85.84	44
85.86	49
85.88	41
85.9	34
85.92	42
85.94	49
85.96	41
85.98	43
86	44
86.02	49
86.04	50
86.06	39
86.08	49
86.1	45
86.12	45
86.14	42
86.16	60
86.18	67
86.2	52
86.22	51
86.24	53
86.26	44
86.28	55
86.3	59
86.32	60
86.34	64
86.36	58
86.38	62
86.4	59
86.42	75
86.44	51
86.46	71
86.48	69
86.5	78
86.52	76
86.54	86
86.56	80
86.58	77
86.6	89
86.62	97
86.64	72
86.66	81
86.68	81
86.7	95
86.72	119
86.74	133
86.76	133
86.78	132
86.8	131
86.82	160
86.84	169
86.86	176
86.88	237
86.9	304
86.92	371
86.94	533
86.96	730
86.98	839
87	1198
87.02	1464
87.04	1739
87.06	2032
87.08	2410
87.1	2660
87.12	3214
87.14	3418
87.16	3773
87.18	4180
87.2	4750
87.22	5137
87.24	5599
87.26	6106
87.28	6164
87.3	5990
87.32	5601
87.34	4674
87.36	3901
87.38	3277
87.4	2665
87.42	2282
87.44	2049
87.46	1910
87.48	1923
87.5	1924
87.52	1841
87.54	1797
87.56	1621
87.58	1499
87.6	1206
87.62	957
87.64	725
87.66	606
87.68	464
87.7	329
87.72	256
87.74	186
87.76	193
87.78	151
87.8	140
87.82	116
87.84	114
87.86	121
87.88	113
87.9	107
87.92	96
87.94	115
87.96	101
87.98	100
88	68
88.02	82
88.04	79
88.06	82
88.08	72
88.1	79
88.12	67
88.14	80
88.16	63
88.18	59
88.2	46
88.22	57
88.24	63
88.26	62
88.28	62
88.3	70
88.32	65
88.34	61
88.36	52
88.38	49
88.4	59
88.42	53
88.44	45
88.46	50
88.48	49
88.5	60
88.52	51
88.54	56
88.56	47
88.58	54
88.6	47
88.62	50
88.64	42
88.66	42
88.68	49
88.7	41
88.72	54
88.74	43
88.76	47
88.78	53
88.8	58
88.82	47
88.84	43
88.86	55
88.88	45
88.9	47
88.92	46
88.94	26
88.96	44
88.98	47
89	45
89.02	41
89.04	50
89.06	45
89.08	44
89.1	43
89.12	38
89.14	44
89.16	45
89.18	43
89.2	45
89.22	31
89.24	42
89.26	32
89.28	43
89.3	37
89.32	42
89.34	42
89.36	30
89.38	33
89.4	35
89.42	39
89.44	23
89.46	39
89.48	36
89.5	28
89.52	25
89.54	37
89.56	27
89.58	27
89.6	38
89.62	43
89.64	28
89.66	36
89.68	38
89.7	43
89.72	36
89.74	30
89.76	32
89.78	40
89.8	34
89.82	37
89.84	45
89.86	26
89.88	36
89.9	33
89.92	43
89.94	27
89.96	38
89.98	38
90	23
90.02	24
90.04	31
90.06	33
90.08	29
90.1	30
90.12	23
90.14	33
90.16	34
90.18	31
90.2	30
90.22	21
90.24	27
90.26	34
90.28	35
90.3	38
90.32	36
90.34	29
90.36	26
90.38	22
90.4	33
90.42	27
90.44	27
90.46	29
90.48	29
90.5	26
90.52	32
90.54	20
90.56	28
90.58	28
90.6	29
90.62	36
90.64	27
90.66	34
90.68	35
90.7	36
90.72	33
90.74	21
90.76	31
90.78	31
90.8	34
90.82	38
90.84	32
90.86	29
90.88	26
90.9	15
90.92	28
90.94	30
90.96	26
90.98	24
91	27
91.02	24
91.04	37
91.06	18
91.08	31
91.1	29
91.12	22
91.14	30
91.16	25
91.18	21
91.2	19
91.22	28
91.24	23
91.26	25
91.28	33
91.3	41
91.32	27
91.34	25
91.36	29
91.38	27
91.4	24
91.42	21
91.44	28
91.46	39
91.48	32
91.5	15
91.52	23
91.54	25
91.56	26
91.58	34
91.6	24
91.62	33
91.64	36
91.66	34
91.68	26
91.7	24
91.72	24
91.74	31
91.76	34
91.78	25
91.8	29
91.82	31
91.84	19
91.86	25
91.88	28
91.9	30
91.92	25
91.94	18
91.96	29
91.98	39
92	20
92.02	20
92.04	23
92.06	20
92.08	24
92.1	28
92.12	24
92.14	36
92.16	15
92.18	30
92.2	24
92.22	23
92.24	28
92.26	29
92.28	33
92.3	23
92.32	29
92.34	30
92.36	20
92.38	23
92.4	21
92.42	29
92.44	15
92.46	30
92.48	21
92.5	32
92.52	23
92.54	24
92.56	24
92.58	20
92.6	29
92.62	29
92.64	20
92.66	27
92.68	32
92.7	18
92.72	19
92.74	23
92.76	22
92.78	27
92.8	17
92.82	35
92.84	26
92.86	26
92.88	20
92.9	18
92.92	26
92.94	35
92.96	14
92.98	16
93	21
93.02	22
93.04	23
93.06	29
93.08	18
93.1	23
93.12	30
93.14	18
93.16	33
93.18	25
93.2	30
93.22	21
93.24	29
93.26	18
93.28	28
93.3	19
93.32	16
93.34	20
93.36	21
93.38	20
93.4	14
93.42	22
93.44	31
93.46	23
93.48	23
93.5	25
93.52	30
93.54	26
93.56	26
93.58	22
93.6	25
93.62	24
93.64	22
93.66	26
93.68	24
93.7	19
93.72	29
93.74	17
93.76	27
93.78	30
93.8	24
93.82	25
93.84	22
93.86	20
93.88	21
93.9	20
93.92	22
93.94	13
93.96	30
93.98	19
94	23
94.02	14
94.04	24
94.06	22
94.08	24
94.1	24
94.12	30
94.14	19
94.16	29
94.18	25
94.2	31
94.22	31
94.24	19
94.26	28
94.28	19
94.3	16
94.32	9
94.34	21
94.36	24
94.38	16
94.4	29
94.42	17
94.44	24
94.46	21
94.48	19
94.5	21
94.52	18
94.54	25
94.56	18
94.58	24
94.6	16
94.62	23
94.64	27
94.66	20
94.68	17
94.7	21
94.72	26
94.74	19
94.76	33
94.78	15
94.8	16
94.82	22
94.84	27
94.86	28
94.88	20
94.9	24
94.92	14
94.94	17
94.96	25
94.98	24
95	19
95.02	30
95.04	39
95.06	23
95.08	22
95.1	28
95.12	20
95.14	21
95.16	25
95.18	15
95.2	17
95.22	21
95.24	19
95.26	18
95.28	17
95.3	15
95.32	21
95.34	18
95.36	17
95.38	29
95.4	22
95.42	22
95.44	24
95.46	24
95.48	17
95.5	17
95.52	20
95.54	21
95.56	19
95.58	23
95.6	20
95.62	27
95.64	17
95.66	24
95.68	21
95.7	26
95.72	24
95.74	21
95.76	24
95.78	20
95.8	29
95.82	21
95.84	20
95.86	27
95.88	17
95.9	19
95.92	15
95.94	22
95.96	16
95.98	16
96	18
96.02	22
96.04	16
96.06	17
96.08	20
96.1	16
96.12	22
96.14	19
96.16	19
96.18	21
96.2	20
96.22	19
96.24	27
96.26	23
96.28	22
96.3	21
96.32	22
96.34	17
96.36	17
96.38	26
96.4	26
96.42	28
96.44	16
96.46	25
96.48	14
96.5	24
96.52	11
96.54	22
96.56	19
96.58	22
96.6	24
96.62	22
96.64	31
96.66	23
96.68	29
96.7	18
96.72	23
96.74	20
96.76	30
96.78	19
96.8	18
96.82	28
96.84	18
96.86	18
96.88	22
96.9	11
96.92	23
96.94	16
96.96	22
96.98	25
97	32
97.02	29
97.04	28
97.06	24
97.08	19
97.1	26
97.12	24
97.14	25
97.16	27
97.18	24
97.2	44
97.22	30
97.24	23
97.26	29
97.28	27
97.3	28
97.32	27
97.34	25
97.36	27
97.38	33
97.4	28
97.42	33
97.44	25
97.46	27
97.48	19
97.5	23
97.52	21
97.54	13
97.56	24
97.58	15
97.6	19
97.62	19
97.64	21
97.66	24
97.68	25
97.7	21
97.72	19
97.74	22
97.76	18
97.78	22
97.8	22
97.82	21
97.84	22
97.86	18
97.88	18
97.9	19
97.92	27
97.94	20
97.96	22
97.98	25
98	17
98.02	19
98.04	22
98.06	15
98.08	15
98.1	25
98.12	23
98.14	17
98.16	17
98.18	27
98.2	28
98.22	18
98.24	20
98.26	21
98.28	22
98.3	23
98.32	21
98.34	16
98.36	19
98.38	11
98.4	22
98.42	20
98.44	16
98.46	21
98.48	27
98.5	10
98.52	20
98.54	19
98.56	22
98.58	20
98.6	21
98.62	21
98.64	17
98.66	21
98.68	19
98.7	20
98.72	20
98.74	18
98.76	30
98.78	24
98.8	15
98.82	21
98.84	33
98.86	19
98.88	28
98.9	19
98.92	22
98.94	11
98.96	18
98.98	30
99	13
99.02	24
99.04	17
99.06	26
99.08	23
99.1	15
99.12	22
99.14	23
99.16	18
99.18	19
99.2	19
99.22	21
99.24	16
99.26	15
99.28	26
99.3	18
99.32	25
99.34	25
99.36	20
99.38	18
99.4	20
99.42	13
99.44	17
99.46	17
99.48	28
99.5	23
99.52	18
99.54	18
99.56	18
99.58	21
99.6	15
99.62	15
99.64	11
99.66	23
99.68	19
99.7	16
99.72	13
99.74	21
99.76	16
99.78	16
99.8	24
99.82	18
99.84	19
99.86	20
99.88	23
99.9	27
99.92	26
99.94	18
99.96	19
99.98	10
100	21
100.02	14
100.04	23
100.06	15
100.08	28
100.1	16
100.12	23
100.14	9
100.16	18
100.18	20
100.2	22
100.22	19
100.24	26
100.26	19
100.28	17
100.3	29
100.32	21
100.34	22
100.36	22
100.38	16
100.4	19
100.42	17
100.44	13
100.46	21
100.48	27
100.5	14
100.52	23
100.54	21
100.56	18
100.58	22
100.6	15
100.62	26
100.64	18
100.66	19
100.68	13
100.7	19
100.72	24
100.74	16
100.76	19
100.78	21
100.8	28
100.82	16
100.84	16
100.86	6
100.88	14
100.9	20
100.92	24
100.94	17
100.96	21
100.98	25
101	19
101.02	19
101.04	22
101.06	24
101.08	18
101.1	21
101.12	26
101.14	23
101.16	24
101.18	15
101.2	16
101.22	26
101.24	24
101.26	20
101.28	16
101.3	24
101.32	29
101.34	16
101.36	12
101.38	14
101.4	24
101.42	11
101.44	19
101.46	19
101.48	19
101.5	19
101.52	20
101.54	20
101.56	20
101.58	21
101.6	22
101.62	23
101.64	30
101.66	20
101.68	14
101.7	18
101.72	18
101.74	18
101.76	25
101.78	14
101.8	13
101.82	22
101.84	20
101.86	20
101.88	24
101.9	21
101.92	12
101.94	17
101.96	17
101.98	25
102	15
102.02	31
102.04	22
102.06	28
102.08	23
102.1	25
102.12	21
102.14	16
102.16	24
102.18	29
102.2	19
102.22	19
102.24	25
102.26	19
102.28	26
102.3	18
102.32	15
102.34	13
102.36	21
102.38	26
102.4	24
102.42	31
102.44	15
102.46	21
102.48	20
102.5	13
102.52	14
102.54	17
102.56	23
102.58	16
102.6	26
102.62	21
102.64	26
102.66	18
102.68	20
102.7	17
102.72	20
102.74	22
102.76	18
102.78	21
102.8	17
102.82	25
102.84	24
102.86	24
102.88	21
102.9	19
102.92	20
102.94	19
102.96	32
102.98	18
103	16
103.02	21
103.04	30
103.06	15
103.08	16
103.1	21
103.12	6
103.14	26
103.16	23
103.18	17
103.2	19
103.22	18
103.24	23
103.26	17
103.28	30
103.3	18
103.32	16
103.34	26
103.36	30
103.38	23
103.4	20
103.42	18
103.44	13
103.46	22
103.48	22
103.5	34
103.52	19
103.54	20
103.56	19
103.58	18
103.6	21
103.62	30
103.64	17
103.66	29
103.68	8
103.7	14
103.72	16
103.74	30
103.76	22
103.78	17
103.8	24
103.82	12
103.84	26
103.86	23
103.88	16
103.9	23
103.92	26
103.94	18
103.96	27
103.98	20
104	26
104.02	29
104.04	14
104.06	27
104.08	24
104.1	21
104.12	32
104.14	19
104.16	20
104.18	23
104.2	28
104.22	22
104.24	20
104.26	24
104.28	19
104.3	21
104.32	22
104.34	20
104.36	19
104.38	19
104.4	22
104.42	32
104.44	17
104.46	19
104.48	20
104.5	13
104.52	20
104.54	22
104.56	20
104.58	29
104.6	23
104.62	18
104.64	18
104.66	24
104.68	16
104.7	13
104.72	18
104.74	18
104.76	20
104.78	14
104.8	17
104.82	24
104.84	18
104.86	15
104.88	19
104.9	27
104.92	22
104.94	29
104.96	16
104.98	29
105	31
105.02	18
105.04	25
105.06	17
105.08	15
105.1	22
105.12	23
105.14	17
105.16	29
105.18	16
105.2	18
105.22	23
105.24	18
105.26	28
105.28	19
105.3	21
105.32	24
105.34	13
105.36	25
105.38	18
105.4	22
105.42	17
105.44	24
105.46	23
105.48	23
105.5	16
105.52	18
105.54	20
105.56	26
105.58	27
105.6	24
105.62	34
105.64	21
105.66	26
105.68	24
105.7	22
105.72	28
105.74	29
105.76	26
105.78	14
105.8	29
105.82	31
105.84	14
105.86	10
105.88	18
105.9	28
105.92	23
105.94	24
105.96	24
105.98	23
106	16
106.02	17
106.04	21
106.06	24
106.08	18
106.1	15
106.12	22
106.14	21
106.16	22
106.18	20
106.2	22
106.22	19
106.24	19
106.26	20
106.28	25
106.3	19
106.32	18
106.34	24
106.36	15
106.38	18
106.4	19
106.42	24
106.44	22
106.46	21
106.48	27
106.5	21
106.52	28
106.54	20
106.56	22
106.58	13
106.6	19
106.62	17
106.64	14
106.66	25
106.68	17
106.7	15
106.72	21
106.74	29
106.76	19
106.78	12
106.8	26
106.82	16
106.84	18
106.86	19
106.88	22
106.9	23
106.92	24
106.94	18
106.96	18
106.98	16
107	27
107.02	25
107.04	24
107.06	18
107.08	29
107.1	26
107.12	23
107.14	17
107.16	24
107.18	20
107.2	26
107.22	28
107.24	20
107.26	28
107.28	23
107.3	26
107.32	19
107.34	23
107.36	26
107.38	20
107.4	23
107.42	25
107.44	25
107.46	22
107.48	16
107.5	27
107.52	20
107.54	29
107.56	14
107.58	25
107.6	16
107.62	27
107.64	30
107.66	24
107.68	24
107.7	25
107.72	18
107.74	15
107.76	22
107.78	28
107.8	17
107.82	21
107.84	27
107.86	24
107.88	25
107.9	20
107.92	27
107.94	19
107.96	18
107.98	24
108	18
108.02	21
108.04	19
108.06	21
108.08	26
108.1	24
108.12	17
108.14	20
108.16	19
108.18	17
108.2	11
108.22	16
108.24	27
108.26	21
108.28	24
108.3	23
108.32	24
108.34	30
108.36	18
108.38	20
108.4	22
108.42	19
108.44	23
108.46	19
108.48	22
108.5	21
108.52	11
108.54	20
108.56	23
108.58	24
108.6	19
108.62	20
108.64	17
108.66	20
108.68	18
108.7	23
108.72	23
108.74	17
108.76	21
108.78	21
108.8	21
108.82	20
108.84	18
108.86	18
108.88	22
108.9	23
108.92	19
108.94	25
108.96	23
108.98	24
109	27
109.02	16
109.04	20
109.06	22
109.08	18
109.1	24
109.12	31
109.14	25
109.16	16
109.18	17
109.2	21
109.22	20
109.24	21
109.26	30
109.28	18
109.3	27
109.32	28
109.34	22
109.36	20
109.38	23
109.4	21
109.42	25
109.44	20
109.46	19
109.48	30
109.5	21
109.52	28
109.54	21
109.56	25
109.58	33
109.6	22
109.62	27
109.64	25
109.66	24
109.68	17
109.7	27
109.72	17
109.74	24
109.76	18
109.78	15
109.8	27
109.82	20
109.84	28
109.86	32
109.88	21
109.9	25
109.92	34
109.94	27
109.96	22
109.98	15
110	32
110.02	32
110.04	30
110.06	22
110.08	32
110.1	41
110.12	40
110.14	45
110.16	54
110.18	48
110.2	42
110.22	44
110.24	36
110.26	34
110.28	41
110.3	27
110.32	22
110.34	35
110.36	24
110.38	33
110.4	38
110.42	24
110.44	43
110.46	37
110.48	30
110.5	25
110.52	25
110.54	35
110.56	21
110.58	30
110.6	27
110.62	25
110.64	21
110.66	18
110.68	20
110.7	22
110.72	24
110.74	22
110.76	28
110.78	15
110.8	25
110.82	14
110.84	13
110.86	22
110.88	26
110.9	18
110.92	23
110.94	17
110.96	32
110.98	26
111	28
111.02	25
111.04	22
111.06	20
111.08	23
111.1	20
111.12	21
111.14	18
111.16	20
111.18	25
111.2	18
111.22	15
111.24	31
111.26	20
111.28	22
111.3	22
111.32	17
111.34	24
111.36	20
111.38	32
111.4	21
111.42	15
111.44	21
111.46	28
111.48	18
111.5	19
111.52	29
111.54	23
111.56	23
111.58	23
111.6	34
111.62	27
111.64	28
111.66	20
111.68	22
111.7	29
111.72	30
111.74	20
111.76	17
111.78	22
111.8	25
111.82	27
111.84	22
111.86	28
111.88	17
111.9	23
111.92	17
111.94	24
111.96	29
111.98	29
112	25
112.02	36
112.04	25
112.06	28
112.08	32
112.1	30
112.12	34
112.14	34
112.16	28
112.18	26
112.2	25
112.22	15
112.24	23
112.26	26
112.28	29
112.3	24
112.32	22
112.34	26
112.36	24
112.38	25
112.4	23
112.42	28
112.44	23
112.46	24
112.48	21
112.5	21
112.52	21
112.54	22
112.56	18
112.58	18
112.6	22
112.62	14
112.64	29
112.66	15
112.68	25
112.7	25
112.72	25
112.74	24
112.76	17
112.78	23
112.8	23
112.82	24
112.84	24
112.86	16
112.88	22
112.9	29
112.92	22
112.94	24
112.96	21
112.98	18
113	17
113.02	26
113.04	20
113.06	22
113.08	23
113.1	31
113.12	21
113.14	28
113.16	22
113.18	24
113.2	19
113.22	27
113.24	22
113.26	14
113.28	17
113.3	26
113.32	22
113.34	18
113.36	24
113.38	20
113.4	24
113.42	29
113.44	18
113.46	26
113.48	24
113.5	21
113.52	23
113.54	19
113.56	31
113.58	20
113.6	34
113.62	25
113.64	12
113.66	26
113.68	15
113.7	15
113.72	34
113.74	19
113.76	26
113.78	29
113.8	15
113.82	21
113.84	21
113.86	18
113.88	26
113.9	25
113.92	18
113.94	17
113.96	17
113.98	24
114	20
114.02	21
114.04	16
114.06	20
114.08	13
114.1	18
114.12	24
114.14	22
114.16	18
114.18	27
114.2	17
114.22	23
114.24	20
114.26	17
114.28	30
114.3	22
114.32	23
114.34	27
114.36	23
114.38	20
114.4	17
114.42	32
114.44	23
114.46	27
114.48	20
114.5	14
114.52	21
114.54	29
114.56	25
114.58	16
114.6	26
114.62	18
114.64	27
114.66	30
114.68	17
114.7	31
114.72	30
114.74	19
114.76	26
114.78	26
114.8	23
114.82	21
114.84	24
114.86	17
114.88	17
114.9	27
114.92	18
114.94	32
114.96	19
114.98	24
115	26
115.02	26
115.04	22
115.06	23
115.08	14
115.1	21
115.12	21
115.14	36
115.16	20
115.18	22
115.2	19
115.22	29
115.24	17
115.26	22
115.28	18
115.3	19
115.32	11
115.34	25
115.36	21
115.38	31
115.4	24
115.42	17
115.44	16
115.46	19
115.48	29
115.5	20
115.52	18
115.54	26
115.56	14
115.58	27
115.6	34
115.62	25
115.64	20
115.66	11
115.68	17
115.7	26
115.72	17
115.74	23
115.76	21
115.78	14
115.8	21
115.82	20
115.84	16
115.86	24
115.88	21
115.9	23
115.92	23
115.94	22
115.96	29
115.98	28
116	22
116.02	23
116.04	20
116.06	22
116.08	21
116.1	27
116.12	26
116.14	20
116.16	24
116.18	20
116.2	25
116.22	22
116.24	11
116.26	22
116.28	17
116.3	22
116.32	25
116.34	19
116.36	22
116.38	15
116.4	13
116.42	22
116.44	30
116.46	15
116.48	24
116.5	22
116.52	19
116.54	16
116.56	19
116.58	23
116.6	19
116.62	18
116.64	23
116.66	19
116.68	30
116.7	20
116.72	23
116.74	24
116.76	28
116.78	25
116.8	25
116.82	19
116.84	20
116.86	19
116.88	19
116.9	16
116.92	21
116.94	21
116.96	26
116.98	14
117	25
117.02	26
117.04	23
117.06	27
117.08	22
117.1	21
117.12	23
117.14	20
117.16	19
117.18	18
117.2	19
117.22	18
117.24	34
117.26	22
117.28	15
117.3	31
117.32	23
117.34	15
117.36	21
117.38	23
117.4	26
117.42	30
117.44	19
117.46	16
117.48	24
117.5	21
117.52	16
117.54	21
117.56	24
117.58	19
117.6	22
117.62	16
117.64	19
117.66	16
117.68	21
117.7	28
117.72	22
117.74	22
117.76	14
117.78	17
117.8	18
117.82	21
117.84	22
117.86	19
117.88	19
117.9	31
117.92	19
117.94	18
117.96	21
117.98	28
118	26
118.02	25
118.04	11
118.06	23
118.08	21
118.1	18
118.12	23
118.14	21
118.16	13
118.18	21
118.2	22
118.22	14
118.24	19
118.26	19
118.28	26
118.3	21
118.32	20
118.34	16
118.36	23
118.38	20
118.4	23
118.42	22
118.44	25
118.46	22
118.48	14
118.5	18
118.52	15
118.54	17
118.56	20
118.58	24
118.6	24
118.62	20
118.64	22
118.66	25
118.68	20
118.7	20
118.72	29
118.74	20
118.76	17
118.78	16
118.8	24
118.82	13
118.84	18
118.86	18
118.88	24
118.9	26
118.92	21
118.94	22
118.96	19
118.98	25
119	26
119.02	18
119.04	16
119.06	23
119.08	15
119.1	20
119.12	26
119.14	28
119.16	24
119.18	22
119.2	20
119.22	28
119.24	30
119.26	26
119.28	14
119.3	29
119.32	20
119.34	17
119.36	26
119.38	24
119.4	24
119.42	32
119.44	28
119.46	22
119.48	24
119.5	21
119.52	17
119.54	35
119.56	24
119.58	25
119.6	20
119.62	21
119.64	21
119.66	24
119.68	24
119.7	28
119.72	30
119.74	31
119.76	23
119.78	31
119.8	23
119.82	33
119.84	26
119.86	33
119.88	30
119.9	40
119.92	29
119.94	37
119.96	35
119.98	46
120	35
