Sample	
Comments	
Filename	C:\DOCUME~1\Alunos\Desktop\F740B_1S2022_Grupo1\amostra_vidro_20-80_002_17_03-05-22_21-00.raw
Goniometer	Miniflex goniometer
Attachment	Standard sample holder
Monochromater	None
ScanningMode	2Theta/Theta
ScanningType	Continuos Scanning
X-Ray	30kV/15mA
Divergence slit	Unknown
Scattering slit	4.2deg.
Receiving slit	0.3mm
Kb filter	
Start	20
Stop	120
Step	0.02
20	14
20.02	13
20.04	18
20.06	14
20.08	12
20.1	14
20.12	15
20.14	12
20.16	25
20.18	24
20.2	10
20.22	16
20.24	15
20.26	22
20.28	17
20.3	8
20.32	13
20.34	16
20.36	19
20.38	14
20.4	16
20.42	13
20.44	18
20.46	12
20.48	8
20.5	19
20.52	16
20.54	17
20.56	20
20.58	27
20.6	10
20.62	14
20.64	15
20.66	13
20.68	15
20.7	13
20.72	15
20.74	18
20.76	19
20.78	27
20.8	15
20.82	19
20.84	10
20.86	18
20.88	13
20.9	22
20.92	18
20.94	11
20.96	17
20.98	15
21	19
21.02	18
21.04	8
21.06	22
21.08	15
21.1	17
21.12	18
21.14	15
21.16	20
21.18	15
21.2	26
21.22	20
21.24	15
21.26	23
21.28	14
21.3	16
21.32	26
21.34	23
21.36	9
21.38	15
21.4	16
21.42	16
21.44	9
21.46	18
21.48	24
21.5	12
21.52	19
21.54	19
21.56	17
21.58	18
21.6	11
21.62	20
21.64	17
21.66	19
21.68	15
21.7	13
21.72	19
21.74	18
21.76	11
21.78	16
21.8	19
21.82	17
21.84	19
21.86	28
21.88	20
21.9	24
21.92	26
21.94	20
21.96	25
21.98	14
22	17
22.02	23
22.04	20
22.06	14
22.08	22
22.1	25
22.12	17
22.14	24
22.16	24
22.18	15
22.2	15
22.22	19
22.24	14
22.26	24
22.28	16
22.3	14
22.32	13
22.34	20
22.36	23
22.38	12
22.4	21
22.42	21
22.44	13
22.46	17
22.48	22
22.5	12
22.52	16
22.54	20
22.56	21
22.58	17
22.6	19
22.62	29
22.64	19
22.66	13
22.68	26
22.7	17
22.72	21
22.74	17
22.76	25
22.78	23
22.8	24
22.82	17
22.84	16
22.86	25
22.88	23
22.9	27
22.92	17
22.94	16
22.96	20
22.98	28
23	15
23.02	17
23.04	21
23.06	24
23.08	10
23.1	11
23.12	19
23.14	23
23.16	20
23.18	12
23.2	26
23.22	16
23.24	19
23.26	19
23.28	21
23.3	20
23.32	15
23.34	14
23.36	21
23.38	21
23.4	16
23.42	11
23.44	20
23.46	17
23.48	11
23.5	16
23.52	17
23.54	16
23.56	24
23.58	20
23.6	14
23.62	14
23.64	18
23.66	25
23.68	20
23.7	18
23.72	15
23.74	12
23.76	21
23.78	23
23.8	24
23.82	25
23.84	18
23.86	14
23.88	14
23.9	22
23.92	22
23.94	19
23.96	15
23.98	17
24	21
24.02	14
24.04	19
24.06	13
24.08	15
24.1	9
24.12	20
24.14	14
24.16	15
24.18	16
24.2	22
24.22	14
24.24	23
24.26	20
24.28	21
24.3	17
24.32	16
24.34	21
24.36	16
24.38	20
24.4	22
24.42	22
24.44	17
24.46	24
24.48	16
24.5	21
24.52	22
24.54	18
24.56	22
24.58	17
24.6	11
24.62	26
24.64	20
24.66	9
24.68	13
24.7	22
24.72	24
24.74	18
24.76	23
24.78	19
24.8	13
24.82	16
24.84	23
24.86	20
24.88	18
24.9	20
24.92	18
24.94	25
24.96	18
24.98	15
25	18
25.02	12
25.04	14
25.06	24
25.08	27
25.1	12
25.12	22
25.14	23
25.16	18
25.18	18
25.2	20
25.22	21
25.24	17
25.26	17
25.28	23
25.3	28
25.32	11
25.34	25
25.36	15
25.38	24
25.4	13
25.42	20
25.44	17
25.46	19
25.48	27
25.5	20
25.52	13
25.54	18
25.56	26
25.58	18
25.6	20
25.62	15
25.64	18
25.66	15
25.68	19
25.7	11
25.72	22
25.74	12
25.76	22
25.78	11
25.8	12
25.82	18
25.84	18
25.86	19
25.88	19
25.9	22
25.92	19
25.94	18
25.96	21
25.98	19
26	19
26.02	25
26.04	30
26.06	14
26.08	13
26.1	15
26.12	15
26.14	11
26.16	21
26.18	16
26.2	15
26.22	12
26.24	19
26.26	11
26.28	16
26.3	6
26.32	20
26.34	14
26.36	23
26.38	22
26.4	14
26.42	15
26.44	20
26.46	18
26.48	15
26.5	18
26.52	14
26.54	15
26.56	9
26.58	22
26.6	17
26.62	19
26.64	9
26.66	14
26.68	12
26.7	23
26.72	19
26.74	25
26.76	14
26.78	14
26.8	15
26.82	21
26.84	21
26.86	20
26.88	17
26.9	16
26.92	18
26.94	18
26.96	19
26.98	10
27	12
27.02	24
27.04	16
27.06	14
27.08	23
27.1	19
27.12	14
27.14	17
27.16	16
27.18	23
27.2	20
27.22	23
27.24	16
27.26	9
27.28	16
27.3	13
27.32	17
27.34	14
27.36	14
27.38	14
27.4	18
27.42	12
27.44	17
27.46	14
27.48	9
27.5	13
27.52	15
27.54	11
27.56	10
27.58	14
27.6	6
27.62	11
27.64	17
27.66	8
27.68	9
27.7	11
27.72	23
27.74	9
27.76	11
27.78	19
27.8	14
27.82	12
27.84	15
27.86	20
27.88	15
27.9	10
27.92	19
27.94	11
27.96	19
27.98	20
28	17
28.02	18
28.04	10
28.06	15
28.08	15
28.1	18
28.12	17
28.14	21
28.16	18
28.18	17
28.2	12
28.22	9
28.24	24
28.26	14
28.28	20
28.3	11
28.32	28
28.34	13
28.36	17
28.38	16
28.4	13
28.42	11
28.44	7
28.46	11
28.48	20
28.5	14
28.52	14
28.54	12
28.56	14
28.58	13
28.6	14
28.62	10
28.64	10
28.66	22
28.68	18
28.7	16
28.72	11
28.74	11
28.76	11
28.78	14
28.8	13
28.82	18
28.84	13
28.86	14
28.88	13
28.9	19
28.92	12
28.94	15
28.96	19
28.98	19
29	18
29.02	20
29.04	12
29.06	12
29.08	14
29.1	18
29.12	20
29.14	18
29.16	15
29.18	24
29.2	11
29.22	15
29.24	13
29.26	22
29.28	9
29.3	11
29.32	12
29.34	14
29.36	15
29.38	15
29.4	12
29.42	9
29.44	15
29.46	11
29.48	13
29.5	12
29.52	23
29.54	20
29.56	14
29.58	14
29.6	5
29.62	12
29.64	16
29.66	18
29.68	20
29.7	24
29.72	11
29.74	14
29.76	13
29.78	13
29.8	14
29.82	19
29.84	18
29.86	7
29.88	12
29.9	14
29.92	18
29.94	11
29.96	19
29.98	12
30	20
30.02	16
30.04	20
30.06	12
30.08	18
30.1	11
30.12	15
30.14	11
30.16	18
30.18	15
30.2	14
30.22	17
30.24	11
30.26	13
30.28	13
30.3	10
30.32	11
30.34	9
30.36	20
30.38	10
30.4	13
30.42	10
30.44	22
30.46	13
30.48	20
30.5	13
30.52	13
30.54	18
30.56	18
30.58	24
30.6	16
30.62	17
30.64	14
30.66	12
30.68	13
30.7	9
30.72	20
30.74	12
30.76	19
30.78	15
30.8	12
30.82	19
30.84	17
30.86	14
30.88	12
30.9	18
30.92	9
30.94	13
30.96	19
30.98	10
31	8
31.02	18
31.04	8
31.06	14
31.08	14
31.1	11
31.12	16
31.14	15
31.16	12
31.18	15
31.2	24
31.22	9
31.24	16
31.26	9
31.28	15
31.3	12
31.32	16
31.34	11
31.36	11
31.38	17
31.4	15
31.42	9
31.44	18
31.46	5
31.48	12
31.5	13
31.52	13
31.54	13
31.56	11
31.58	21
31.6	18
31.62	15
31.64	18
31.66	15
31.68	11
31.7	12
31.72	22
31.74	15
31.76	10
31.78	17
31.8	15
31.82	12
31.84	16
31.86	12
31.88	21
31.9	14
31.92	12
31.94	11
31.96	14
31.98	13
32	7
32.02	15
32.04	16
32.06	14
32.08	11
32.1	13
32.12	15
32.14	12
32.16	15
32.18	19
32.2	13
32.22	14
32.24	13
32.26	9
32.28	17
32.3	12
32.32	12
32.34	12
32.36	13
32.38	11
32.4	11
32.42	9
32.44	20
32.46	16
32.48	12
32.5	15
32.52	14
32.54	8
32.56	14
32.58	11
32.6	8
32.62	15
32.64	14
32.66	11
32.68	10
32.7	16
32.72	10
32.74	14
32.76	11
32.78	8
32.8	12
32.82	13
32.84	15
32.86	10
32.88	5
32.9	13
32.92	14
32.94	20
32.96	15
32.98	19
33	12
33.02	8
33.04	10
33.06	10
33.08	14
33.1	17
33.12	11
33.14	22
33.16	16
33.18	11
33.2	15
33.22	12
33.24	14
33.26	9
33.28	11
33.3	7
33.32	13
33.34	22
33.36	18
33.38	12
33.4	15
33.42	12
33.44	20
33.46	12
33.48	8
33.5	10
33.52	6
33.54	8
33.56	10
33.58	10
33.6	14
33.62	12
33.64	15
33.66	11
33.68	16
33.7	7
33.72	18
33.74	14
33.76	12
33.78	8
33.8	13
33.82	11
33.84	12
33.86	15
33.88	16
33.9	14
33.92	18
33.94	10
33.96	18
33.98	11
34	13
34.02	11
34.04	15
34.06	14
34.08	14
34.1	12
34.12	16
34.14	14
34.16	9
34.18	16
34.2	14
34.22	13
34.24	18
34.26	7
34.28	2
34.3	14
34.32	7
34.34	16
34.36	13
34.38	8
34.4	8
34.42	7
34.44	9
34.46	11
34.48	12
34.5	19
34.52	12
34.54	15
34.56	10
34.58	11
34.6	7
34.62	6
34.64	16
34.66	16
34.68	10
34.7	11
34.72	11
34.74	7
34.76	16
34.78	11
34.8	12
34.82	18
34.84	5
34.86	13
34.88	8
34.9	17
34.92	20
34.94	9
34.96	8
34.98	9
35	12
35.02	10
35.04	9
35.06	16
35.08	9
35.1	8
35.12	18
35.14	11
35.16	11
35.18	16
35.2	17
35.22	15
35.24	16
35.26	10
35.28	10
35.3	14
35.32	13
35.34	14
35.36	10
35.38	13
35.4	11
35.42	11
35.44	7
35.46	16
35.48	10
35.5	12
35.52	11
35.54	17
35.56	8
35.58	11
35.6	7
35.62	7
35.64	16
35.66	13
35.68	15
35.7	14
35.72	9
35.74	11
35.76	10
35.78	14
35.8	10
35.82	11
35.84	15
35.86	15
35.88	10
35.9	12
35.92	9
35.94	14
35.96	15
35.98	13
36	14
36.02	9
36.04	13
36.06	14
36.08	11
36.1	13
36.12	9
36.14	8
36.16	9
36.18	13
36.2	13
36.22	6
36.24	12
36.26	11
36.28	15
36.3	10
36.32	14
36.34	10
36.36	13
36.38	15
36.4	11
36.42	11
36.44	9
36.46	15
36.48	9
36.5	13
36.52	14
36.54	12
36.56	4
36.58	16
36.6	11
36.62	13
36.64	16
36.66	11
36.68	13
36.7	10
36.72	12
36.74	9
36.76	13
36.78	13
36.8	14
36.82	8
36.84	10
36.86	7
36.88	13
36.9	13
36.92	9
36.94	4
36.96	9
36.98	10
37	13
37.02	12
37.04	19
37.06	8
37.08	10
37.1	9
37.12	9
37.14	14
37.16	11
37.18	8
37.2	13
37.22	17
37.24	9
37.26	11
37.28	16
37.3	7
37.32	10
37.34	7
37.36	10
37.38	9
37.4	19
37.42	11
37.44	8
37.46	13
37.48	6
37.5	11
37.52	15
37.54	11
37.56	11
37.58	6
37.6	12
37.62	20
37.64	7
37.66	18
37.68	13
37.7	8
37.72	12
37.74	7
37.76	7
37.78	13
37.8	6
37.82	14
37.84	9
37.86	8
37.88	14
37.9	14
37.92	10
37.94	6
37.96	14
37.98	13
38	9
38.02	7
38.04	14
38.06	13
38.08	6
38.1	8
38.12	9
38.14	12
38.16	7
38.18	7
38.2	8
38.22	15
38.24	9
38.26	12
38.28	14
38.3	6
38.32	13
38.34	10
38.36	12
38.38	6
38.4	11
38.42	13
38.44	13
38.46	9
38.48	6
38.5	12
38.52	7
38.54	10
38.56	12
38.58	10
38.6	12
38.62	5
38.64	5
38.66	8
38.68	11
38.7	11
38.72	12
38.74	10
38.76	9
38.78	11
38.8	9
38.82	5
38.84	11
38.86	11
38.88	7
38.9	16
38.92	11
38.94	15
38.96	9
38.98	14
39	5
39.02	10
39.04	15
39.06	15
39.08	9
39.1	6
39.12	8
39.14	5
39.16	8
39.18	12
39.2	11
39.22	11
39.24	11
39.26	11
39.28	10
39.3	11
39.32	9
39.34	13
39.36	5
39.38	12
39.4	4
39.42	13
39.44	15
39.46	8
39.48	9
39.5	4
39.52	9
39.54	9
39.56	11
39.58	7
39.6	8
39.62	10
39.64	8
39.66	3
39.68	9
39.7	10
39.72	15
39.74	4
39.76	11
39.78	13
39.8	18
39.82	6
39.84	13
39.86	7
39.88	10
39.9	11
39.92	13
39.94	14
39.96	16
39.98	14
40	8
40.02	12
40.04	8
40.06	9
40.08	6
40.1	14
40.12	10
40.14	12
40.16	13
40.18	10
40.2	11
40.22	12
40.24	10
40.26	6
40.28	12
40.3	13
40.32	17
40.34	9
40.36	8
40.38	11
40.4	13
40.42	9
40.44	8
40.46	9
40.48	11
40.5	9
40.52	11
40.54	11
40.56	9
40.58	7
40.6	9
40.62	11
40.64	9
40.66	6
40.68	14
40.7	3
40.72	9
40.74	14
40.76	11
40.78	4
40.8	9
40.82	11
40.84	12
40.86	5
40.88	8
40.9	8
40.92	7
40.94	17
40.96	7
40.98	16
41	3
41.02	5
41.04	8
41.06	11
41.08	13
41.1	8
41.12	10
41.14	6
41.16	13
41.18	10
41.2	11
41.22	9
41.24	6
41.26	13
41.28	13
41.3	7
41.32	12
41.34	8
41.36	9
41.38	16
41.4	9
41.42	7
41.44	16
41.46	5
41.48	11
41.5	5
41.52	14
41.54	13
41.56	13
41.58	12
41.6	15
41.62	12
41.64	10
41.66	7
41.68	8
41.7	9
41.72	7
41.74	10
41.76	12
41.78	8
41.8	8
41.82	10
41.84	7
41.86	9
41.88	7
41.9	7
41.92	12
41.94	14
41.96	13
41.98	5
42	11
42.02	11
42.04	8
42.06	12
42.08	6
42.1	5
42.12	13
42.14	12
42.16	14
42.18	10
42.2	10
42.22	14
42.24	14
42.26	10
42.28	11
42.3	10
42.32	6
42.34	6
42.36	9
42.38	13
42.4	15
42.42	12
42.44	2
42.46	6
42.48	15
42.5	13
42.52	11
42.54	16
42.56	10
42.58	12
42.6	10
42.62	12
42.64	6
42.66	8
42.68	11
42.7	7
42.72	7
42.74	12
42.76	15
42.78	9
42.8	7
42.82	9
42.84	9
42.86	10
42.88	9
42.9	9
42.92	12
42.94	10
42.96	12
42.98	8
43	9
43.02	8
43.04	10
43.06	11
43.08	8
43.1	10
43.12	12
43.14	9
43.16	17
43.18	14
43.2	9
43.22	12
43.24	6
43.26	7
43.28	13
43.3	9
43.32	8
43.34	8
43.36	10
43.38	14
43.4	10
43.42	17
43.44	12
43.46	6
43.48	11
43.5	10
43.52	6
43.54	9
43.56	3
43.58	7
43.6	7
43.62	12
43.64	16
43.66	9
43.68	11
43.7	15
43.72	9
43.74	6
43.76	10
43.78	9
43.8	12
43.82	8
43.84	12
43.86	8
43.88	5
43.9	10
43.92	8
43.94	9
43.96	10
43.98	12
44	13
44.02	7
44.04	10
44.06	15
44.08	8
44.1	7
44.12	8
44.14	11
44.16	6
44.18	10
44.2	7
44.22	9
44.24	9
44.26	9
44.28	4
44.3	8
44.32	9
44.34	6
44.36	7
44.38	6
44.4	9
44.42	10
44.44	8
44.46	9
44.48	8
44.5	9
44.52	11
44.54	8
44.56	9
44.58	9
44.6	10
44.62	10
44.64	16
44.66	7
44.68	11
44.7	10
44.72	9
44.74	11
44.76	10
44.78	10
44.8	10
44.82	8
44.84	11
44.86	6
44.88	15
44.9	13
44.92	3
44.94	5
44.96	6
44.98	6
45	10
45.02	10
45.04	9
45.06	10
45.08	4
45.1	12
45.12	9
45.14	13
45.16	6
45.18	15
45.2	11
45.22	17
45.24	13
45.26	10
45.28	5
45.3	10
45.32	12
45.34	3
45.36	9
45.38	7
45.4	10
45.42	10
45.44	6
45.46	7
45.48	12
45.5	12
45.52	8
45.54	11
45.56	9
45.58	7
45.6	9
45.62	10
45.64	12
45.66	10
45.68	8
45.7	9
45.72	6
45.74	8
45.76	6
45.78	9
45.8	5
45.82	12
45.84	7
45.86	8
45.88	12
45.9	11
45.92	12
45.94	6
45.96	12
45.98	11
46	9
46.02	19
46.04	5
46.06	12
46.08	11
46.1	3
46.12	16
46.14	10
46.16	10
46.18	9
46.2	9
46.22	12
46.24	12
46.26	7
46.28	9
46.3	11
46.32	10
46.34	6
46.36	17
46.38	9
46.4	12
46.42	11
46.44	7
46.46	6
46.48	8
46.5	9
46.52	8
46.54	8
46.56	15
46.58	5
46.6	9
46.62	13
46.64	4
46.66	2
46.68	11
46.7	7
46.72	11
46.74	6
46.76	9
46.78	7
46.8	6
46.82	7
46.84	3
46.86	12
46.88	7
46.9	10
46.92	6
46.94	9
46.96	8
46.98	9
47	13
47.02	9
47.04	9
47.06	11
47.08	6
47.1	9
47.12	6
47.14	8
47.16	6
47.18	6
47.2	6
47.22	12
47.24	7
47.26	14
47.28	10
47.3	7
47.32	10
47.34	6
47.36	7
47.38	9
47.4	12
47.42	10
47.44	5
47.46	18
47.48	14
47.5	9
47.52	9
47.54	9
47.56	10
47.58	10
47.6	10
47.62	9
47.64	4
47.66	6
47.68	10
47.7	6
47.72	15
47.74	6
47.76	8
47.78	11
47.8	11
47.82	12
47.84	6
47.86	3
47.88	11
47.9	8
47.92	10
47.94	14
47.96	10
47.98	11
48	7
48.02	15
48.04	11
48.06	7
48.08	7
48.1	9
48.12	9
48.14	6
48.16	4
48.18	8
48.2	4
48.22	7
48.24	6
48.26	6
48.28	8
48.3	15
48.32	10
48.34	8
48.36	10
48.38	10
48.4	11
48.42	11
48.44	6
48.46	9
48.48	11
48.5	7
48.52	9
48.54	8
48.56	3
48.58	12
48.6	6
48.62	7
48.64	7
48.66	4
48.68	10
48.7	9
48.72	8
48.74	6
48.76	14
48.78	11
48.8	12
48.82	8
48.84	4
48.86	7
48.88	9
48.9	19
48.92	10
48.94	4
48.96	15
48.98	7
49	8
49.02	7
49.04	5
49.06	9
49.08	17
49.1	7
49.12	11
49.14	4
49.16	4
49.18	11
49.2	7
49.22	3
49.24	3
49.26	10
49.28	8
49.3	10
49.32	5
49.34	9
49.36	5
49.38	9
49.4	8
49.42	13
49.44	15
49.46	10
49.48	1
49.5	7
49.52	12
49.54	9
49.56	6
49.58	5
49.6	9
49.62	8
49.64	5
49.66	8
49.68	9
49.7	12
49.72	12
49.74	11
49.76	8
49.78	12
49.8	8
49.82	9
49.84	10
49.86	9
49.88	7
49.9	13
49.92	9
49.94	9
49.96	11
49.98	12
50	7
50.02	4
50.04	8
50.06	9
50.08	6
50.1	15
50.12	8
50.14	9
50.16	13
50.18	5
50.2	6
50.22	9
50.24	12
50.26	10
50.28	11
50.3	12
50.32	13
50.34	8
50.36	17
50.38	8
50.4	9
50.42	12
50.44	12
50.46	7
50.48	13
50.5	10
50.52	14
50.54	9
50.56	8
50.58	7
50.6	7
50.62	12
50.64	11
50.66	8
50.68	9
50.7	11
50.72	10
50.74	7
50.76	11
50.78	7
50.8	17
50.82	8
50.84	6
50.86	10
50.88	4
50.9	7
50.92	11
50.94	11
50.96	9
50.98	8
51	4
51.02	9
51.04	7
51.06	8
51.08	11
51.1	4
51.12	13
51.14	8
51.16	5
51.18	9
51.2	11
51.22	11
51.24	8
51.26	6
51.28	7
51.3	8
51.32	7
51.34	10
51.36	6
51.38	7
51.4	6
51.42	11
51.44	9
51.46	6
51.48	15
51.5	7
51.52	10
51.54	10
51.56	9
51.58	5
51.6	5
51.62	9
51.64	8
51.66	15
51.68	2
51.7	8
51.72	11
51.74	8
51.76	6
51.78	9
51.8	7
51.82	10
51.84	4
51.86	14
51.88	5
51.9	7
51.92	9
51.94	7
51.96	6
51.98	13
52	3
52.02	13
52.04	12
52.06	5
52.08	11
52.1	15
52.12	7
52.14	13
52.16	10
52.18	6
52.2	7
52.22	6
52.24	9
52.26	9
52.28	4
52.3	6
52.32	12
52.34	8
52.36	6
52.38	8
52.4	9
52.42	8
52.44	6
52.46	13
52.48	7
52.5	11
52.52	8
52.54	3
52.56	8
52.58	6
52.6	12
52.62	5
52.64	8
52.66	12
52.68	10
52.7	11
52.72	7
52.74	7
52.76	10
52.78	9
52.8	5
52.82	14
52.84	10
52.86	13
52.88	3
52.9	10
52.92	6
52.94	10
52.96	5
52.98	5
53	9
53.02	7
53.04	6
53.06	12
53.08	8
53.1	8
53.12	10
53.14	8
53.16	4
53.18	3
53.2	7
53.22	12
53.24	9
53.26	11
53.28	7
53.3	7
53.32	5
53.34	9
53.36	7
53.38	10
53.4	4
53.42	10
53.44	4
53.46	8
53.48	7
53.5	19
53.52	9
53.54	7
53.56	6
53.58	9
53.6	10
53.62	5
53.64	7
53.66	7
53.68	15
53.7	9
53.72	5
53.74	8
53.76	12
53.78	6
53.8	10
53.82	3
53.84	14
53.86	11
53.88	7
53.9	4
53.92	5
53.94	10
53.96	13
53.98	9
54	6
54.02	11
54.04	5
54.06	8
54.08	14
54.1	12
54.12	5
54.14	11
54.16	11
54.18	8
54.2	7
54.22	12
54.24	4
54.26	9
54.28	11
54.3	8
54.32	9
54.34	12
54.36	15
54.38	7
54.4	6
54.42	5
54.44	9
54.46	10
54.48	11
54.5	9
54.52	12
54.54	10
54.56	6
54.58	7
54.6	14
54.62	9
54.64	18
54.66	13
54.68	5
54.7	10
54.72	9
54.74	7
54.76	9
54.78	7
54.8	7
54.82	5
54.84	8
54.86	5
54.88	9
54.9	9
54.92	3
54.94	5
54.96	7
54.98	14
55	9
55.02	8
55.04	13
55.06	4
55.08	4
55.1	2
55.12	6
55.14	5
55.16	14
55.18	7
55.2	9
55.22	8
55.24	8
55.26	11
55.28	9
55.3	12
55.32	8
55.34	5
55.36	10
55.38	9
55.4	9
55.42	15
55.44	7
55.46	9
55.48	10
55.5	6
55.52	7
55.54	9
55.56	11
55.58	11
55.6	14
55.62	0
55.64	11
55.66	12
55.68	12
55.7	6
55.72	6
55.74	9
55.76	7
55.78	5
55.8	8
55.82	6
55.84	8
55.86	4
55.88	7
55.9	8
55.92	9
55.94	14
55.96	6
55.98	9
56	7
56.02	9
56.04	3
56.06	10
56.08	8
56.1	12
56.12	12
56.14	9
56.16	10
56.18	12
56.2	5
56.22	9
56.24	7
56.26	9
56.28	6
56.3	9
56.32	6
56.34	9
56.36	9
56.38	5
56.4	6
56.42	8
56.44	5
56.46	7
56.48	8
56.5	8
56.52	17
56.54	5
56.56	12
56.58	8
56.6	12
56.62	8
56.64	12
56.66	5
56.68	10
56.7	3
56.72	14
56.74	6
56.76	8
56.78	1
56.8	8
56.82	9
56.84	10
56.86	15
56.88	7
56.9	12
56.92	10
56.94	10
56.96	7
56.98	8
57	5
57.02	7
57.04	7
57.06	10
57.08	12
57.1	10
57.12	11
57.14	7
57.16	4
57.18	9
57.2	3
57.22	8
57.24	11
57.26	6
57.28	10
57.3	6
57.32	5
57.34	10
57.36	10
57.38	7
57.4	9
57.42	13
57.44	11
57.46	7
57.48	4
57.5	9
57.52	7
57.54	6
57.56	10
57.58	11
57.6	9
57.62	8
57.64	10
57.66	6
57.68	7
57.7	5
57.72	7
57.74	10
57.76	11
57.78	12
57.8	6
57.82	14
57.84	6
57.86	10
57.88	11
57.9	10
57.92	6
57.94	9
57.96	14
57.98	6
58	8
58.02	6
58.04	5
58.06	7
58.08	11
58.1	7
58.12	10
58.14	9
58.16	6
58.18	8
58.2	8
58.22	5
58.24	8
58.26	7
58.28	17
58.3	9
58.32	7
58.34	8
58.36	8
58.38	13
58.4	7
58.42	11
58.44	10
58.46	10
58.48	6
58.5	5
58.52	8
58.54	7
58.56	5
58.58	13
58.6	10
58.62	9
58.64	3
58.66	9
58.68	3
58.7	6
58.72	7
58.74	7
58.76	9
58.78	9
58.8	13
58.82	6
58.84	8
58.86	10
58.88	4
58.9	7
58.92	5
58.94	5
58.96	8
58.98	5
59	3
59.02	8
59.04	13
59.06	5
59.08	7
59.1	8
59.12	11
59.14	6
59.16	9
59.18	5
59.2	7
59.22	9
59.24	9
59.26	6
59.28	10
59.3	6
59.32	15
59.34	5
59.36	7
59.38	7
59.4	10
59.42	10
59.44	5
59.46	10
59.48	8
59.5	19
59.52	2
59.54	8
59.56	9
59.58	11
59.6	9
59.62	8
59.64	4
59.66	6
59.68	13
59.7	10
59.72	11
59.74	11
59.76	6
59.78	5
59.8	3
59.82	9
59.84	11
59.86	4
59.88	6
59.9	3
59.92	9
59.94	11
59.96	10
59.98	9
60	10
60.02	9
60.04	6
60.06	9
60.08	6
60.1	4
60.12	3
60.14	8
60.16	8
60.18	6
60.2	4
60.22	11
60.24	10
60.26	9
60.28	11
60.3	5
60.32	10
60.34	8
60.36	8
60.38	6
60.4	7
60.42	7
60.44	6
60.46	6
60.48	4
60.5	8
60.52	15
60.54	3
60.56	4
60.58	10
60.6	11
60.62	7
60.64	7
60.66	10
60.68	6
60.7	13
60.72	10
60.74	5
60.76	7
60.78	13
60.8	9
60.82	9
60.84	7
60.86	6
60.88	6
60.9	13
60.92	7
60.94	4
60.96	11
60.98	9
61	11
61.02	11
61.04	9
61.06	5
61.08	8
61.1	11
61.12	17
61.14	8
61.16	5
61.18	10
61.2	15
61.22	6
61.24	11
61.26	13
61.28	11
61.3	10
61.32	6
61.34	7
61.36	7
61.38	9
61.4	5
61.42	11
61.44	11
61.46	7
61.48	4
61.5	5
61.52	7
61.54	12
61.56	7
61.58	8
61.6	4
61.62	9
61.64	2
61.66	6
61.68	5
61.7	10
61.72	3
61.74	11
61.76	6
61.78	14
61.8	8
61.82	8
61.84	7
61.86	9
61.88	5
61.9	5
61.92	10
61.94	9
61.96	7
61.98	8
62	6
62.02	11
62.04	5
62.06	6
62.08	11
62.1	12
62.12	8
62.14	7
62.16	6
62.18	10
62.2	14
62.22	9
62.24	9
62.26	8
62.28	5
62.3	11
62.32	7
62.34	5
62.36	10
62.38	15
62.4	8
62.42	9
62.44	9
62.46	15
62.48	3
62.5	10
62.52	8
62.54	5
62.56	10
62.58	12
62.6	8
62.62	10
62.64	10
62.66	3
62.68	16
62.7	8
62.72	4
62.74	8
62.76	10
62.78	8
62.8	11
62.82	11
62.84	12
62.86	6
62.88	7
62.9	9
62.92	11
62.94	6
62.96	10
62.98	17
63	5
63.02	4
63.04	5
63.06	11
63.08	10
63.1	7
63.12	8
63.14	6
63.16	7
63.18	7
63.2	7
63.22	8
63.24	12
63.26	9
63.28	8
63.3	10
63.32	8
63.34	7
63.36	5
63.38	9
63.4	12
63.42	15
63.44	10
63.46	9
63.48	9
63.5	8
63.52	9
63.54	14
63.56	8
63.58	11
63.6	11
63.62	8
63.64	7
63.66	4
63.68	8
63.7	11
63.72	8
63.74	7
63.76	8
63.78	10
63.8	13
63.82	12
63.84	6
63.86	4
63.88	17
63.9	3
63.92	11
63.94	10
63.96	8
63.98	11
64	7
64.02	4
64.04	9
64.06	12
64.08	8
64.1	4
64.12	13
64.14	9
64.16	4
64.18	10
64.2	8
64.22	4
64.24	8
64.26	8
64.28	8
64.3	7
64.32	9
64.34	7
64.36	10
64.38	6
64.4	7
64.42	7
64.44	5
64.46	7
64.48	9
64.5	10
64.52	13
64.54	8
64.56	7
64.58	8
64.6	6
64.62	5
64.64	7
64.66	11
64.68	10
64.7	13
64.72	9
64.74	13
64.76	9
64.78	8
64.8	12
64.82	9
64.84	8
64.86	8
64.88	11
64.9	5
64.92	8
64.94	8
64.96	14
64.98	13
65	14
65.02	10
65.04	7
65.06	13
65.08	9
65.1	12
65.12	6
65.14	7
65.16	15
65.18	16
65.2	5
65.22	10
65.24	5
65.26	8
65.28	9
65.3	8
65.32	7
65.34	11
65.36	12
65.38	3
65.4	14
65.42	14
65.44	4
65.46	6
65.48	11
65.5	6
65.52	6
65.54	5
65.56	8
65.58	9
65.6	5
65.62	7
65.64	8
65.66	7
65.68	5
65.7	9
65.72	6
65.74	9
65.76	4
65.78	13
65.8	8
65.82	8
65.84	7
65.86	5
65.88	9
65.9	11
65.92	10
65.94	8
65.96	9
65.98	10
66	13
66.02	7
66.04	6
66.06	10
66.08	8
66.1	5
66.12	9
66.14	7
66.16	7
66.18	12
66.2	14
66.22	4
66.24	10
66.26	8
66.28	2
66.3	4
66.32	5
66.34	6
66.36	9
66.38	6
66.4	8
66.42	8
66.44	6
66.46	7
66.48	8
66.5	6
66.52	7
66.54	15
66.56	5
66.58	15
66.6	7
66.62	14
66.64	9
66.66	12
66.68	10
66.7	7
66.72	8
66.74	9
66.76	10
66.78	3
66.8	12
66.82	15
66.84	10
66.86	8
66.88	8
66.9	19
66.92	12
66.94	4
66.96	9
66.98	9
67	8
67.02	6
67.04	5
67.06	11
67.08	10
67.1	8
67.12	11
67.14	3
67.16	5
67.18	7
67.2	5
67.22	9
67.24	7
67.26	8
67.28	11
67.3	10
67.32	5
67.34	6
67.36	12
67.38	7
67.4	14
67.42	9
67.44	10
67.46	13
67.48	8
67.5	8
67.52	7
67.54	14
67.56	13
67.58	10
67.6	6
67.62	13
67.64	9
67.66	6
67.68	6
67.7	8
67.72	10
67.74	14
67.76	2
67.78	4
67.8	11
67.82	9
67.84	6
67.86	10
67.88	8
67.9	10
67.92	3
67.94	6
67.96	4
67.98	12
68	7
68.02	8
68.04	2
68.06	10
68.08	8
68.1	7
68.12	7
68.14	8
68.16	7
68.18	14
68.2	6
68.22	12
68.24	4
68.26	10
68.28	4
68.3	2
68.32	5
68.34	10
68.36	14
68.38	10
68.4	8
68.42	10
68.44	7
68.46	4
68.48	4
68.5	4
68.52	14
68.54	15
68.56	12
68.58	12
68.6	11
68.62	10
68.64	14
68.66	7
68.68	12
68.7	11
68.72	9
68.74	10
68.76	10
68.78	5
68.8	7
68.82	6
68.84	9
68.86	8
68.88	9
68.9	15
68.92	8
68.94	3
68.96	11
68.98	17
69	7
69.02	9
69.04	8
69.06	4
69.08	5
69.1	5
69.12	12
69.14	9
69.16	7
69.18	7
69.2	9
69.22	5
69.24	7
69.26	9
69.28	14
69.3	9
69.32	14
69.34	7
69.36	13
69.38	3
69.4	5
69.42	10
69.44	11
69.46	9
69.48	5
69.5	9
69.52	11
69.54	7
69.56	11
69.58	8
69.6	12
69.62	12
69.64	2
69.66	5
69.68	8
69.7	6
69.72	8
69.74	6
69.76	6
69.78	9
69.8	10
69.82	8
69.84	10
69.86	7
69.88	9
69.9	16
69.92	4
69.94	11
69.96	7
69.98	10
70	2
70.02	11
70.04	11
70.06	7
70.08	5
70.1	11
70.12	7
70.14	5
70.16	10
70.18	8
70.2	10
70.22	13
70.24	7
70.26	8
70.28	11
70.3	9
70.32	10
70.34	8
70.36	11
70.38	9
70.4	3
70.42	5
70.44	8
70.46	10
70.48	5
70.5	9
70.52	11
70.54	7
70.56	9
70.58	11
70.6	8
70.62	7
70.64	3
70.66	7
70.68	12
70.7	8
70.72	11
70.74	10
70.76	5
70.78	9
70.8	7
70.82	13
70.84	10
70.86	8
70.88	3
70.9	6
70.92	9
70.94	11
70.96	7
70.98	6
71	10
71.02	2
71.04	6
71.06	7
71.08	6
71.1	4
71.12	8
71.14	16
71.16	8
71.18	13
71.2	10
71.22	13
71.24	6
71.26	13
71.28	13
71.3	9
71.32	7
71.34	12
71.36	9
71.38	10
71.4	5
71.42	9
71.44	11
71.46	8
71.48	7
71.5	6
71.52	12
71.54	8
71.56	7
71.58	10
71.6	11
71.62	8
71.64	15
71.66	12
71.68	7
71.7	9
71.72	13
71.74	7
71.76	8
71.78	14
71.8	10
71.82	11
71.84	17
71.86	2
71.88	11
71.9	14
71.92	5
71.94	6
71.96	9
71.98	5
72	12
72.02	10
72.04	9
72.06	7
72.08	7
72.1	4
72.12	10
72.14	13
72.16	6
72.18	7
72.2	7
72.22	14
72.24	7
72.26	5
72.28	15
72.3	7
72.32	10
72.34	12
72.36	9
72.38	3
72.4	10
72.42	4
72.44	12
72.46	10
72.48	9
72.5	5
72.52	7
72.54	11
72.56	10
72.58	9
72.6	5
72.62	8
72.64	10
72.66	9
72.68	3
72.7	9
72.72	10
72.74	11
72.76	7
72.78	11
72.8	6
72.82	12
72.84	9
72.86	8
72.88	10
72.9	8
72.92	13
72.94	11
72.96	10
72.98	16
73	12
73.02	11
73.04	17
73.06	12
73.08	12
73.1	6
73.12	11
73.14	10
73.16	4
73.18	14
73.2	7
73.22	12
73.24	4
73.26	9
73.28	9
73.3	4
73.32	5
73.34	5
73.36	7
73.38	10
73.4	4
73.42	11
73.44	14
73.46	7
73.48	6
73.5	14
73.52	12
73.54	8
73.56	6
73.58	11
73.6	7
73.62	11
73.64	10
73.66	5
73.68	5
73.7	12
73.72	13
73.74	5
73.76	10
73.78	8
73.8	3
73.82	8
73.84	6
73.86	16
73.88	5
73.9	11
73.92	7
73.94	16
73.96	12
73.98	6
74	8
74.02	8
74.04	11
74.06	7
74.08	8
74.1	6
74.12	11
74.14	2
74.16	9
74.18	13
74.2	12
74.22	10
74.24	10
74.26	11
74.28	14
74.3	15
74.32	12
74.34	16
74.36	3
74.38	12
74.4	7
74.42	8
74.44	12
74.46	11
74.48	11
74.5	13
74.52	15
74.54	8
74.56	9
74.58	6
74.6	8
74.62	16
74.64	8
74.66	7
74.68	10
74.7	5
74.72	5
74.74	7
74.76	14
74.78	8
74.8	8
74.82	5
74.84	8
74.86	7
74.88	8
74.9	13
74.92	8
74.94	7
74.96	7
74.98	6
75	10
75.02	11
75.04	11
75.06	6
75.08	11
75.1	7
75.12	15
75.14	7
75.16	9
75.18	13
75.2	10
75.22	7
75.24	2
75.26	11
75.28	5
75.3	4
75.32	8
75.34	7
75.36	3
75.38	10
75.4	8
75.42	9
75.44	9
75.46	5
75.48	3
75.5	11
75.52	6
75.54	16
75.56	3
75.58	10
75.6	8
75.62	13
75.64	12
75.66	7
75.68	4
75.7	5
75.72	6
75.74	12
75.76	10
75.78	10
75.8	10
75.82	5
75.84	7
75.86	8
75.88	8
75.9	10
75.92	16
75.94	9
75.96	5
75.98	8
76	11
76.02	9
76.04	8
76.06	5
76.08	9
76.1	15
76.12	5
76.14	7
76.16	8
76.18	11
76.2	12
76.22	6
76.24	10
76.26	15
76.28	7
76.3	10
76.32	8
76.34	7
76.36	6
76.38	13
76.4	5
76.42	8
76.44	5
76.46	10
76.48	7
76.5	3
76.52	16
76.54	5
76.56	7
76.58	3
76.6	8
76.62	10
76.64	6
76.66	12
76.68	9
76.7	8
76.72	12
76.74	8
76.76	11
76.78	10
76.8	9
76.82	10
76.84	6
76.86	9
76.88	10
76.9	11
76.92	2
76.94	3
76.96	14
76.98	10
77	8
77.02	6
77.04	6
77.06	7
77.08	4
77.1	10
77.12	12
77.14	6
77.16	9
77.18	10
77.2	10
77.22	9
77.24	0
77.26	0
77.28	0
77.3	0
77.32	0
77.34	0
77.36	0
77.38	0
77.4	0
77.42	0
77.44	0
77.46	0
77.48	0
77.5	0
77.52	0
77.54	0
77.56	0
77.58	0
77.6	0
77.62	0
77.64	0
77.66	0
77.68	0
77.7	0
77.72	0
77.74	0
77.76	0
77.78	0
77.8	0
77.82	0
77.84	0
77.86	0
77.88	0
77.9	0
77.92	0
77.94	0
77.96	0
77.98	0
78	0
78.02	0
78.04	0
78.06	0
78.08	0
78.1	0
78.12	0
78.14	0
78.16	0
78.18	0
78.2	0
78.22	0
78.24	0
78.26	0
78.28	0
78.3	0
78.32	0
78.34	0
78.36	0
78.38	0
78.4	0
78.42	0
78.44	0
78.46	0
78.48	0
78.5	0
78.52	0
78.54	0
78.56	0
78.58	0
78.6	0
78.62	0
78.64	0
78.66	0
78.68	0
78.7	0
78.72	0
78.74	0
78.76	0
78.78	0
78.8	0
78.82	0
78.84	0
78.86	0
78.88	0
78.9	0
78.92	0
78.94	0
78.96	0
78.98	0
79	0
79.02	0
79.04	0
79.06	0
79.08	0
79.1	0
79.12	0
79.14	0
79.16	0
79.18	0
79.2	0
79.22	0
79.24	0
79.26	0
79.28	0
79.3	0
79.32	0
79.34	0
79.36	0
79.38	0
79.4	0
79.42	0
79.44	0
79.46	0
79.48	0
79.5	0
79.52	0
79.54	0
79.56	0
79.58	0
79.6	0
79.62	0
79.64	0
79.66	0
79.68	0
79.7	0
79.72	0
79.74	0
79.76	0
79.78	0
79.8	0
79.82	0
79.84	0
79.86	0
79.88	0
79.9	0
79.92	0
79.94	0
79.96	0
79.98	0
80	0
80.02	0
80.04	0
80.06	0
80.08	0
80.1	0
80.12	0
80.14	0
80.16	0
80.18	0
80.2	0
80.22	0
80.24	0
80.26	0
80.28	0
80.3	0
80.32	0
80.34	0
80.36	0
80.38	0
80.4	0
80.42	0
80.44	0
80.46	0
80.48	0
80.5	0
80.52	0
80.54	0
80.56	0
80.58	0
80.6	0
80.62	0
80.64	0
80.66	0
80.68	0
80.7	0
80.72	0
80.74	0
80.76	0
80.78	0
80.8	0
80.82	0
80.84	0
80.86	0
80.88	0
80.9	0
80.92	0
80.94	0
80.96	0
80.98	0
81	0
81.02	0
81.04	0
81.06	0
81.08	0
81.1	0
81.12	0
81.14	0
81.16	0
81.18	0
81.2	0
81.22	0
81.24	0
81.26	0
81.28	0
81.3	0
81.32	0
81.34	0
81.36	0
81.38	0
81.4	0
81.42	0
81.44	0
81.46	0
81.48	0
81.5	0
81.52	0
81.54	0
81.56	0
81.58	0
81.6	0
81.62	0
81.64	0
81.66	0
81.68	0
81.7	0
81.72	0
81.74	0
81.76	0
81.78	0
81.8	0
81.82	0
81.84	0
81.86	0
81.88	0
81.9	0
81.92	0
81.94	0
81.96	0
81.98	0
82	0
82.02	0
82.04	0
82.06	0
82.08	0
82.1	0
82.12	0
82.14	0
82.16	0
82.18	0
82.2	0
82.22	0
82.24	0
82.26	0
82.28	0
82.3	0
82.32	0
82.34	0
82.36	0
82.38	0
82.4	0
82.42	0
82.44	0
82.46	0
82.48	0
82.5	0
82.52	0
82.54	0
82.56	0
82.58	0
82.6	0
82.62	0
82.64	0
82.66	0
82.68	0
82.7	0
82.72	0
82.74	0
82.76	0
82.78	0
82.8	0
82.82	0
82.84	0
82.86	0
82.88	0
82.9	0
82.92	0
82.94	0
82.96	0
82.98	0
83	0
83.02	0
83.04	0
83.06	0
83.08	0
83.1	0
83.12	0
83.14	0
83.16	0
83.18	0
83.2	0
83.22	0
83.24	0
83.26	0
83.28	0
83.3	0
83.32	0
83.34	0
83.36	0
83.38	0
83.4	0
83.42	0
83.44	0
83.46	0
83.48	0
83.5	0
83.52	0
83.54	0
83.56	0
83.58	0
83.6	0
83.62	0
83.64	0
83.66	0
83.68	0
83.7	0
83.72	0
83.74	0
83.76	0
83.78	0
83.8	0
83.82	0
83.84	0
83.86	0
83.88	0
83.9	0
83.92	0
83.94	0
83.96	0
83.98	0
84	0
84.02	0
84.04	0
84.06	0
84.08	0
84.1	0
84.12	0
84.14	0
84.16	0
84.18	0
84.2	0
84.22	0
84.24	0
84.26	0
84.28	0
84.3	0
84.32	0
84.34	0
84.36	0
84.38	0
84.4	0
84.42	0
84.44	0
84.46	0
84.48	0
84.5	0
84.52	0
84.54	0
84.56	0
84.58	0
84.6	0
84.62	0
84.64	0
84.66	0
84.68	0
84.7	0
84.72	0
84.74	0
84.76	0
84.78	0
84.8	0
84.82	0
84.84	0
84.86	0
84.88	0
84.9	0
84.92	0
84.94	0
84.96	0
84.98	0
85	0
85.02	0
85.04	0
85.06	0
85.08	0
85.1	0
85.12	0
85.14	0
85.16	0
85.18	0
85.2	0
85.22	0
85.24	0
85.26	0
85.28	0
85.3	0
85.32	0
85.34	0
85.36	0
85.38	0
85.4	0
85.42	0
85.44	0
85.46	0
85.48	0
85.5	0
85.52	0
85.54	0
85.56	0
85.58	0
85.6	0
85.62	0
85.64	0
85.66	0
85.68	0
85.7	0
85.72	0
85.74	0
85.76	0
85.78	0
85.8	0
85.82	0
85.84	0
85.86	0
85.88	0
85.9	0
85.92	0
85.94	0
85.96	0
85.98	0
86	0
86.02	0
86.04	0
86.06	0
86.08	0
86.1	0
86.12	0
86.14	0
86.16	0
86.18	0
86.2	0
86.22	0
86.24	0
86.26	0
86.28	0
86.3	0
86.32	0
86.34	0
86.36	0
86.38	0
86.4	0
86.42	0
86.44	0
86.46	0
86.48	0
86.5	0
86.52	0
86.54	0
86.56	0
86.58	0
86.6	0
86.62	0
86.64	0
86.66	0
86.68	0
86.7	0
86.72	0
86.74	0
86.76	0
86.78	0
86.8	0
86.82	0
86.84	0
86.86	0
86.88	0
86.9	0
86.92	0
86.94	0
86.96	0
86.98	0
87	0
87.02	0
87.04	0
87.06	0
87.08	0
87.1	0
87.12	0
87.14	0
87.16	0
87.18	0
87.2	0
87.22	0
87.24	0
87.26	0
87.28	0
87.3	0
87.32	0
87.34	0
87.36	0
87.38	0
87.4	0
87.42	0
87.44	0
87.46	0
87.48	0
87.5	0
87.52	0
87.54	0
87.56	0
87.58	0
87.6	0
87.62	0
87.64	0
87.66	0
87.68	0
87.7	0
87.72	0
87.74	0
87.76	0
87.78	0
87.8	0
87.82	0
87.84	0
87.86	0
87.88	0
87.9	0
87.92	0
87.94	0
87.96	0
87.98	0
88	0
88.02	0
88.04	0
88.06	0
88.08	0
88.1	0
88.12	0
88.14	0
88.16	0
88.18	0
88.2	0
88.22	0
88.24	0
88.26	0
88.28	0
88.3	0
88.32	0
88.34	0
88.36	0
88.38	0
88.4	0
88.42	0
88.44	0
88.46	0
88.48	0
88.5	0
88.52	0
88.54	0
88.56	0
88.58	0
88.6	0
88.62	0
88.64	0
88.66	0
88.68	0
88.7	0
88.72	0
88.74	0
88.76	0
88.78	0
88.8	0
88.82	0
88.84	0
88.86	0
88.88	0
88.9	0
88.92	0
88.94	0
88.96	0
88.98	0
89	0
89.02	0
89.04	0
89.06	0
89.08	0
89.1	0
89.12	0
89.14	0
89.16	0
89.18	0
89.2	0
89.22	0
89.24	0
89.26	0
89.28	0
89.3	0
89.32	0
89.34	0
89.36	0
89.38	0
89.4	0
89.42	0
89.44	0
89.46	0
89.48	0
89.5	0
89.52	0
89.54	0
89.56	0
89.58	0
89.6	0
89.62	0
89.64	0
89.66	0
89.68	0
89.7	0
89.72	0
89.74	0
89.76	0
89.78	0
89.8	0
89.82	0
89.84	0
89.86	0
89.88	0
89.9	0
89.92	0
89.94	0
89.96	0
89.98	0
90	0
90.02	0
90.04	0
90.06	0
90.08	0
90.1	0
90.12	0
90.14	0
90.16	0
90.18	0
90.2	0
90.22	0
90.24	0
90.26	0
90.28	0
90.3	0
90.32	0
90.34	0
90.36	0
90.38	0
90.4	0
90.42	0
90.44	0
90.46	0
90.48	0
90.5	0
90.52	0
90.54	0
90.56	0
90.58	0
90.6	0
90.62	0
90.64	0
90.66	0
90.68	0
90.7	0
90.72	0
90.74	0
90.76	0
90.78	0
90.8	0
90.82	0
90.84	0
90.86	0
90.88	0
90.9	0
90.92	0
90.94	0
90.96	0
90.98	0
91	0
91.02	0
91.04	0
91.06	0
91.08	0
91.1	0
91.12	0
91.14	0
91.16	0
91.18	0
91.2	0
91.22	0
91.24	0
91.26	0
91.28	0
91.3	0
91.32	0
91.34	0
91.36	0
91.38	0
91.4	0
91.42	0
91.44	0
91.46	0
91.48	0
91.5	0
91.52	0
91.54	0
91.56	0
91.58	0
91.6	0
91.62	0
91.64	0
91.66	0
91.68	0
91.7	0
91.72	0
91.74	0
91.76	0
91.78	0
91.8	0
91.82	0
91.84	0
91.86	0
91.88	0
91.9	0
91.92	0
91.94	0
91.96	0
91.98	0
92	0
92.02	0
92.04	0
92.06	0
92.08	0
92.1	0
92.12	0
92.14	0
92.16	0
92.18	0
92.2	0
92.22	0
92.24	0
92.26	0
92.28	0
92.3	0
92.32	0
92.34	0
92.36	0
92.38	0
92.4	0
92.42	0
92.44	0
92.46	0
92.48	0
92.5	0
92.52	0
92.54	0
92.56	0
92.58	0
92.6	0
92.62	0
92.64	0
92.66	0
92.68	0
92.7	0
92.72	0
92.74	0
92.76	0
92.78	0
92.8	0
92.82	0
92.84	0
92.86	0
92.88	0
92.9	0
92.92	0
92.94	0
92.96	0
92.98	0
93	0
93.02	0
93.04	0
93.06	0
93.08	0
93.1	0
93.12	0
93.14	0
93.16	0
93.18	0
93.2	0
93.22	0
93.24	0
93.26	0
93.28	0
93.3	0
93.32	0
93.34	0
93.36	0
93.38	0
93.4	0
93.42	0
93.44	0
93.46	0
93.48	0
93.5	0
93.52	0
93.54	0
93.56	0
93.58	0
93.6	0
93.62	0
93.64	0
93.66	0
93.68	0
93.7	0
93.72	0
93.74	0
93.76	0
93.78	0
93.8	0
93.82	0
93.84	0
93.86	0
93.88	0
93.9	0
93.92	0
93.94	0
93.96	0
93.98	0
94	0
94.02	0
94.04	0
94.06	0
94.08	0
94.1	0
94.12	0
94.14	0
94.16	0
94.18	0
94.2	0
94.22	0
94.24	0
94.26	0
94.28	0
94.3	0
94.32	0
94.34	0
94.36	0
94.38	0
94.4	0
94.42	0
94.44	0
94.46	0
94.48	0
94.5	0
94.52	0
94.54	0
94.56	0
94.58	0
94.6	0
94.62	0
94.64	0
94.66	0
94.68	0
94.7	0
94.72	0
94.74	0
94.76	0
94.78	0
94.8	0
94.82	0
94.84	0
94.86	0
94.88	0
94.9	0
94.92	0
94.94	0
94.96	0
94.98	0
95	0
95.02	0
95.04	0
95.06	0
95.08	0
95.1	0
95.12	0
95.14	0
95.16	0
95.18	0
95.2	0
95.22	0
95.24	0
95.26	0
95.28	0
95.3	0
95.32	0
95.34	0
95.36	0
95.38	0
95.4	0
95.42	0
95.44	0
95.46	0
95.48	0
95.5	0
95.52	0
95.54	0
95.56	0
95.58	0
95.6	0
95.62	0
95.64	0
95.66	0
95.68	0
95.7	0
95.72	0
95.74	0
95.76	0
95.78	0
95.8	0
95.82	0
95.84	0
95.86	0
95.88	0
95.9	0
95.92	0
95.94	0
95.96	0
95.98	0
96	0
96.02	0
96.04	0
96.06	0
96.08	0
96.1	0
96.12	0
96.14	0
96.16	0
96.18	0
96.2	0
96.22	0
96.24	0
96.26	0
96.28	0
96.3	0
96.32	0
96.34	0
96.36	0
96.38	0
96.4	0
96.42	0
96.44	0
96.46	0
96.48	0
96.5	0
96.52	0
96.54	0
96.56	0
96.58	0
96.6	0
96.62	0
96.64	0
96.66	0
96.68	0
96.7	0
96.72	0
96.74	0
96.76	0
96.78	0
96.8	0
96.82	0
96.84	0
96.86	0
96.88	0
96.9	0
96.92	0
96.94	0
96.96	0
96.98	0
97	0
97.02	0
97.04	0
97.06	0
97.08	0
97.1	0
97.12	0
97.14	0
97.16	0
97.18	0
97.2	0
97.22	0
97.24	0
97.26	0
97.28	0
97.3	0
97.32	0
97.34	0
97.36	0
97.38	0
97.4	0
97.42	0
97.44	0
97.46	0
97.48	0
97.5	0
97.52	0
97.54	0
97.56	0
97.58	0
97.6	0
97.62	0
97.64	0
97.66	0
97.68	0
97.7	0
97.72	0
97.74	0
97.76	0
97.78	0
97.8	0
97.82	0
97.84	0
97.86	0
97.88	0
97.9	0
97.92	0
97.94	0
97.96	0
97.98	0
98	0
98.02	0
98.04	0
98.06	0
98.08	0
98.1	0
98.12	0
98.14	0
98.16	0
98.18	0
98.2	0
98.22	0
98.24	0
98.26	0
98.28	0
98.3	0
98.32	0
98.34	0
98.36	0
98.38	0
98.4	0
98.42	0
98.44	0
98.46	0
98.48	0
98.5	0
98.52	0
98.54	0
98.56	0
98.58	0
98.6	0
98.62	0
98.64	0
98.66	0
98.68	0
98.7	0
98.72	0
98.74	0
98.76	0
98.78	0
98.8	0
98.82	0
98.84	0
98.86	0
98.88	0
98.9	0
98.92	0
98.94	0
98.96	0
98.98	0
99	0
99.02	0
99.04	0
99.06	0
99.08	0
99.1	0
99.12	0
99.14	0
99.16	0
99.18	0
99.2	0
99.22	0
99.24	0
99.26	0
99.28	0
99.3	0
99.32	0
99.34	0
99.36	0
99.38	0
99.4	0
99.42	0
99.44	0
99.46	0
99.48	0
99.5	0
99.52	0
99.54	0
99.56	0
99.58	0
99.6	0
99.62	0
99.64	0
99.66	0
99.68	0
99.7	0
99.72	0
99.74	0
99.76	0
99.78	0
99.8	0
99.82	0
99.84	0
99.86	0
99.88	0
99.9	0
99.92	0
99.94	0
99.96	0
99.98	0
100	0
100.02	0
100.04	0
100.06	0
100.08	0
100.1	0
100.12	0
100.14	0
100.16	0
100.18	0
100.2	0
100.22	0
100.24	0
100.26	0
100.28	0
100.3	0
100.32	0
100.34	0
100.36	0
100.38	0
100.4	0
100.42	0
100.44	0
100.46	0
100.48	0
100.5	0
100.52	0
100.54	0
100.56	0
100.58	0
100.6	0
100.62	0
100.64	0
100.66	0
100.68	0
100.7	0
100.72	0
100.74	0
100.76	0
100.78	0
100.8	0
100.82	0
100.84	0
100.86	0
100.88	0
100.9	0
100.92	0
100.94	0
100.96	0
100.98	0
101	0
101.02	0
101.04	0
101.06	0
101.08	0
101.1	0
101.12	0
101.14	0
101.16	0
101.18	0
101.2	0
101.22	0
101.24	0
101.26	0
101.28	0
101.3	0
101.32	0
101.34	0
101.36	0
101.38	0
101.4	0
101.42	0
101.44	0
101.46	0
101.48	0
101.5	0
101.52	0
101.54	0
101.56	0
101.58	0
101.6	0
101.62	0
101.64	0
101.66	0
101.68	0
101.7	0
101.72	0
101.74	0
101.76	0
101.78	0
101.8	0
101.82	0
101.84	0
101.86	0
101.88	0
101.9	0
101.92	0
101.94	0
101.96	0
101.98	0
102	0
102.02	0
102.04	0
102.06	0
102.08	0
102.1	0
102.12	0
102.14	0
102.16	0
102.18	0
102.2	0
102.22	0
102.24	0
102.26	0
102.28	0
102.3	0
102.32	0
102.34	0
102.36	0
102.38	0
102.4	0
102.42	0
102.44	0
102.46	0
102.48	0
102.5	0
102.52	0
102.54	0
102.56	0
102.58	0
102.6	0
102.62	0
102.64	0
102.66	0
102.68	0
102.7	0
102.72	0
102.74	0
102.76	0
102.78	0
102.8	0
102.82	0
102.84	0
102.86	0
102.88	0
102.9	0
102.92	0
102.94	0
102.96	0
102.98	0
103	0
103.02	0
103.04	0
103.06	0
103.08	0
103.1	0
103.12	0
103.14	0
103.16	0
103.18	0
103.2	0
103.22	0
103.24	0
103.26	0
103.28	0
103.3	0
103.32	0
103.34	0
103.36	0
103.38	0
103.4	0
103.42	0
103.44	0
103.46	0
103.48	0
103.5	0
103.52	0
103.54	0
103.56	0
103.58	0
103.6	0
103.62	0
103.64	0
103.66	0
103.68	0
103.7	0
103.72	0
103.74	0
103.76	0
103.78	0
103.8	0
103.82	0
103.84	0
103.86	0
103.88	0
103.9	0
103.92	0
103.94	0
103.96	0
103.98	0
104	0
104.02	0
104.04	0
104.06	0
104.08	0
104.1	0
104.12	0
104.14	0
104.16	0
104.18	0
104.2	0
104.22	0
104.24	0
104.26	0
104.28	0
104.3	0
104.32	0
104.34	0
104.36	0
104.38	0
104.4	0
104.42	0
104.44	0
104.46	0
104.48	0
104.5	0
104.52	0
104.54	0
104.56	0
104.58	0
104.6	0
104.62	0
104.64	0
104.66	0
104.68	0
104.7	0
104.72	0
104.74	0
104.76	0
104.78	0
104.8	0
104.82	0
104.84	0
104.86	0
104.88	0
104.9	0
104.92	0
104.94	0
104.96	0
104.98	0
105	0
105.02	0
105.04	0
105.06	0
105.08	0
105.1	0
105.12	0
105.14	0
105.16	0
105.18	0
105.2	0
105.22	0
105.24	0
105.26	0
105.28	0
105.3	0
105.32	0
105.34	0
105.36	0
105.38	0
105.4	0
105.42	0
105.44	0
105.46	0
105.48	0
105.5	0
105.52	0
105.54	0
105.56	0
105.58	0
105.6	0
105.62	0
105.64	0
105.66	0
105.68	0
105.7	0
105.72	0
105.74	0
105.76	0
105.78	0
105.8	0
105.82	0
105.84	0
105.86	0
105.88	0
105.9	0
105.92	0
105.94	0
105.96	0
105.98	0
106	0
106.02	0
106.04	0
106.06	0
106.08	0
106.1	0
106.12	0
106.14	0
106.16	0
106.18	0
106.2	0
106.22	0
106.24	0
106.26	0
106.28	0
106.3	0
106.32	0
106.34	0
106.36	0
106.38	0
106.4	0
106.42	0
106.44	0
106.46	0
106.48	0
106.5	0
106.52	0
106.54	0
106.56	0
106.58	0
106.6	0
106.62	0
106.64	0
106.66	0
106.68	0
106.7	0
106.72	0
106.74	0
106.76	0
106.78	0
106.8	0
106.82	0
106.84	0
106.86	0
106.88	0
106.9	0
106.92	0
106.94	0
106.96	0
106.98	0
107	0
107.02	0
107.04	0
107.06	0
107.08	0
107.1	0
107.12	0
107.14	0
107.16	0
107.18	0
107.2	0
107.22	0
107.24	0
107.26	0
107.28	0
107.3	0
107.32	0
107.34	0
107.36	0
107.38	0
107.4	0
107.42	0
107.44	0
107.46	0
107.48	0
107.5	0
107.52	0
107.54	0
107.56	0
107.58	0
107.6	0
107.62	0
107.64	0
107.66	0
107.68	0
107.7	0
107.72	0
107.74	0
107.76	0
107.78	0
107.8	0
107.82	0
107.84	0
107.86	0
107.88	0
107.9	0
107.92	0
107.94	0
107.96	0
107.98	0
108	0
108.02	0
108.04	0
108.06	0
108.08	0
108.1	0
108.12	0
108.14	0
108.16	0
108.18	0
108.2	0
108.22	0
108.24	0
108.26	0
108.28	0
108.3	0
108.32	0
108.34	0
108.36	0
108.38	0
108.4	0
108.42	0
108.44	0
108.46	0
108.48	0
108.5	0
108.52	0
108.54	0
108.56	0
108.58	0
108.6	0
108.62	0
108.64	0
108.66	0
108.68	0
108.7	0
108.72	0
108.74	0
108.76	0
108.78	0
108.8	0
108.82	0
108.84	0
108.86	0
108.88	0
108.9	0
108.92	0
108.94	0
108.96	0
108.98	0
109	0
109.02	0
109.04	0
109.06	0
109.08	0
109.1	0
109.12	0
109.14	0
109.16	0
109.18	0
109.2	0
109.22	0
109.24	0
109.26	0
109.28	0
109.3	0
109.32	0
109.34	0
109.36	0
109.38	0
109.4	0
109.42	0
109.44	0
109.46	0
109.48	0
109.5	0
109.52	0
109.54	0
109.56	0
109.58	0
109.6	0
109.62	0
109.64	0
109.66	0
109.68	0
109.7	0
109.72	0
109.74	0
109.76	0
109.78	0
109.8	0
109.82	0
109.84	0
109.86	0
109.88	0
109.9	0
109.92	0
109.94	0
109.96	0
109.98	0
110	0
110.02	0
110.04	0
110.06	0
110.08	0
110.1	0
110.12	0
110.14	0
110.16	0
110.18	0
110.2	0
110.22	0
110.24	0
110.26	0
110.28	0
110.3	0
110.32	0
110.34	0
110.36	0
110.38	0
110.4	0
110.42	0
110.44	0
110.46	0
110.48	0
110.5	0
110.52	0
110.54	0
110.56	0
110.58	0
110.6	0
110.62	0
110.64	0
110.66	0
110.68	0
110.7	0
110.72	0
110.74	0
110.76	0
110.78	0
110.8	0
110.82	0
110.84	0
110.86	0
110.88	0
110.9	0
110.92	0
110.94	0
110.96	0
110.98	0
111	0
111.02	0
111.04	0
111.06	0
111.08	0
111.1	0
111.12	0
111.14	0
111.16	0
111.18	0
111.2	0
111.22	0
111.24	0
111.26	0
111.28	0
111.3	0
111.32	0
111.34	0
111.36	0
111.38	0
111.4	0
111.42	0
111.44	0
111.46	0
111.48	0
111.5	0
111.52	0
111.54	0
111.56	0
111.58	0
111.6	0
111.62	0
111.64	0
111.66	0
111.68	0
111.7	0
111.72	0
111.74	0
111.76	0
111.78	0
111.8	0
111.82	0
111.84	0
111.86	0
111.88	0
111.9	0
111.92	0
111.94	0
111.96	0
111.98	0
112	0
112.02	0
112.04	0
112.06	0
112.08	0
112.1	0
112.12	0
112.14	0
112.16	0
112.18	0
112.2	0
112.22	0
112.24	0
112.26	0
112.28	0
112.3	0
112.32	0
112.34	0
112.36	0
112.38	0
112.4	0
112.42	0
112.44	0
112.46	0
112.48	0
112.5	0
112.52	0
112.54	0
112.56	0
112.58	0
112.6	0
112.62	0
112.64	0
112.66	0
112.68	0
112.7	0
112.72	0
112.74	0
112.76	0
112.78	0
112.8	0
112.82	0
112.84	0
112.86	0
112.88	0
112.9	0
112.92	0
112.94	0
112.96	0
112.98	0
113	0
113.02	0
113.04	0
113.06	0
113.08	0
113.1	0
113.12	0
113.14	0
113.16	0
113.18	0
113.2	0
113.22	0
113.24	0
113.26	0
113.28	0
113.3	0
113.32	0
113.34	0
113.36	0
113.38	0
113.4	0
113.42	0
113.44	0
113.46	0
113.48	0
113.5	0
113.52	0
113.54	0
113.56	0
113.58	0
113.6	0
113.62	0
113.64	0
113.66	0
113.68	0
113.7	0
113.72	0
113.74	0
113.76	0
113.78	0
113.8	0
113.82	0
113.84	0
113.86	0
113.88	0
113.9	0
113.92	0
113.94	0
113.96	0
113.98	0
114	0
114.02	0
114.04	0
114.06	0
114.08	0
114.1	0
114.12	0
114.14	0
114.16	0
114.18	0
114.2	0
114.22	0
114.24	0
114.26	0
114.28	0
114.3	0
114.32	0
114.34	0
114.36	0
114.38	0
114.4	0
114.42	0
114.44	0
114.46	0
114.48	0
114.5	0
114.52	0
114.54	0
114.56	0
114.58	0
114.6	0
114.62	0
114.64	0
114.66	0
114.68	0
114.7	0
114.72	0
114.74	0
114.76	0
114.78	0
114.8	0
114.82	0
114.84	0
114.86	0
114.88	0
114.9	0
114.92	0
114.94	0
114.96	0
114.98	0
115	0
115.02	0
115.04	0
115.06	0
115.08	0
115.1	0
115.12	0
115.14	0
115.16	0
115.18	0
115.2	0
115.22	0
115.24	0
115.26	0
115.28	0
115.3	0
115.32	0
115.34	0
115.36	0
115.38	0
115.4	0
115.42	0
115.44	0
115.46	0
115.48	0
115.5	0
115.52	0
115.54	0
115.56	0
115.58	0
115.6	0
115.62	0
115.64	0
115.66	0
115.68	0
115.7	0
115.72	0
115.74	0
115.76	0
115.78	0
115.8	0
115.82	0
115.84	0
115.86	0
115.88	0
115.9	0
115.92	0
115.94	0
115.96	0
115.98	0
116	0
116.02	0
116.04	0
116.06	0
116.08	0
116.1	0
116.12	0
116.14	0
116.16	0
116.18	0
116.2	0
116.22	0
116.24	0
116.26	0
116.28	0
116.3	0
116.32	0
116.34	0
116.36	0
116.38	0
116.4	0
116.42	0
116.44	0
116.46	0
116.48	0
116.5	0
116.52	0
116.54	0
116.56	0
116.58	0
116.6	0
116.62	0
116.64	0
116.66	0
116.68	0
116.7	0
116.72	0
116.74	0
116.76	0
116.78	0
116.8	0
116.82	0
116.84	0
116.86	0
116.88	0
116.9	0
116.92	0
116.94	0
116.96	0
116.98	0
117	0
117.02	0
117.04	0
117.06	0
117.08	0
117.1	0
117.12	0
117.14	0
117.16	0
117.18	0
117.2	0
117.22	0
117.24	0
117.26	0
117.28	0
117.3	0
117.32	0
117.34	0
117.36	0
117.38	0
117.4	0
117.42	0
117.44	0
117.46	0
117.48	0
117.5	0
117.52	0
117.54	0
117.56	0
117.58	0
117.6	0
117.62	0
117.64	0
117.66	0
117.68	0
117.7	0
117.72	0
117.74	0
117.76	0
117.78	0
117.8	0
117.82	0
117.84	0
117.86	0
117.88	0
117.9	0
117.92	0
117.94	0
117.96	0
117.98	0
118	0
118.02	0
118.04	0
118.06	0
118.08	0
118.1	0
118.12	0
118.14	0
118.16	0
118.18	0
118.2	0
118.22	0
118.24	0
118.26	0
118.28	0
118.3	0
118.32	0
118.34	0
118.36	0
118.38	0
118.4	0
118.42	0
118.44	0
118.46	0
118.48	0
118.5	0
118.52	0
118.54	0
118.56	0
118.58	0
118.6	0
118.62	0
118.64	0
118.66	0
118.68	0
118.7	0
118.72	0
118.74	0
118.76	0
118.78	0
118.8	0
118.82	0
118.84	0
118.86	0
118.88	0
118.9	0
118.92	0
118.94	0
118.96	0
118.98	0
119	0
119.02	0
119.04	0
119.06	0
119.08	0
119.1	0
119.12	0
119.14	0
119.16	0
119.18	0
119.2	0
119.22	0
119.24	0
119.26	0
119.28	0
119.3	0
119.32	0
119.34	0
119.36	0
119.38	0
119.4	0
119.42	0
119.44	0
119.46	0
119.48	0
119.5	0
119.52	0
119.54	0
119.56	0
119.58	0
119.6	0
119.62	0
119.64	0
119.66	0
119.68	0
119.7	0
119.72	0
119.74	0
119.76	0
119.78	0
119.8	0
119.82	0
119.84	0
119.86	0
119.88	0
119.9	0
119.92	0
119.94	0
119.96	0
119.98	0
120	0
