Sample	
Comments	
Filename	C:\DOCUME~1\Alunos\Desktop\F740B_1S2022_Grupo1\amostra2_20-120_002_17_03-05-22_22-07.raw
Goniometer	Miniflex goniometer
Attachment	Standard sample holder
Monochromater	None
ScanningMode	2Theta/Theta
ScanningType	Continuos Scanning
X-Ray	30kV/15mA
Divergence slit	Unknown
Scattering slit	4.2deg.
Receiving slit	0.3mm
Kb filter	
Start	20
Stop	120
Step	0.02
20	8
20.02	11
20.04	10
20.06	20
20.08	9
20.1	12
20.12	11
20.14	9
20.16	9
20.18	10
20.2	9
20.22	13
20.24	15
20.26	11
20.28	14
20.3	8
20.32	11
20.34	10
20.36	11
20.38	8
20.4	17
20.42	12
20.44	17
20.46	5
20.48	12
20.5	16
20.52	10
20.54	13
20.56	17
20.58	11
20.6	21
20.62	6
20.64	9
20.66	12
20.68	7
20.7	15
20.72	12
20.74	7
20.76	11
20.78	13
20.8	13
20.82	10
20.84	6
20.86	17
20.88	15
20.9	11
20.92	8
20.94	11
20.96	12
20.98	15
21	10
21.02	10
21.04	9
21.06	16
21.08	8
21.1	11
21.12	10
21.14	11
21.16	7
21.18	16
21.2	12
21.22	8
21.24	13
21.26	10
21.28	16
21.3	8
21.32	7
21.34	11
21.36	9
21.38	12
21.4	15
21.42	8
21.44	11
21.46	8
21.48	17
21.5	14
21.52	10
21.54	10
21.56	8
21.58	13
21.6	15
21.62	8
21.64	15
21.66	9
21.68	14
21.7	7
21.72	12
21.74	6
21.76	17
21.78	19
21.8	8
21.82	16
21.84	12
21.86	19
21.88	12
21.9	8
21.92	13
21.94	9
21.96	13
21.98	11
22	13
22.02	16
22.04	10
22.06	13
22.08	9
22.1	9
22.12	8
22.14	13
22.16	9
22.18	17
22.2	15
22.22	15
22.24	13
22.26	8
22.28	11
22.3	13
22.32	10
22.34	10
22.36	9
22.38	10
22.4	7
22.42	15
22.44	13
22.46	12
22.48	8
22.5	17
22.52	8
22.54	12
22.56	12
22.58	10
22.6	8
22.62	19
22.64	12
22.66	14
22.68	12
22.7	9
22.72	12
22.74	11
22.76	21
22.78	9
22.8	19
22.82	11
22.84	15
22.86	14
22.88	14
22.9	13
22.92	14
22.94	12
22.96	9
22.98	7
23	18
23.02	8
23.04	10
23.06	15
23.08	7
23.1	14
23.12	9
23.14	9
23.16	8
23.18	17
23.2	9
23.22	16
23.24	12
23.26	13
23.28	9
23.3	16
23.32	13
23.34	17
23.36	19
23.38	16
23.4	16
23.42	11
23.44	7
23.46	9
23.48	14
23.5	14
23.52	12
23.54	9
23.56	10
23.58	18
23.6	17
23.62	8
23.64	16
23.66	5
23.68	12
23.7	12
23.72	12
23.74	16
23.76	8
23.78	13
23.8	9
23.82	8
23.84	10
23.86	16
23.88	12
23.9	9
23.92	17
23.94	16
23.96	10
23.98	9
24	12
24.02	8
24.04	20
24.06	13
24.08	15
24.1	18
24.12	8
24.14	12
24.16	13
24.18	14
24.2	13
24.22	14
24.24	10
24.26	9
24.28	8
24.3	16
24.32	16
24.34	11
24.36	12
24.38	9
24.4	15
24.42	10
24.44	13
24.46	13
24.48	16
24.5	17
24.52	10
24.54	13
24.56	11
24.58	8
24.6	13
24.62	16
24.64	14
24.66	9
24.68	11
24.7	9
24.72	11
24.74	10
24.76	8
24.78	15
24.8	16
24.82	10
24.84	13
24.86	9
24.88	11
24.9	18
24.92	11
24.94	13
24.96	11
24.98	17
25	13
25.02	14
25.04	12
25.06	12
25.08	9
25.1	8
25.12	9
25.14	11
25.16	7
25.18	14
25.2	13
25.22	13
25.24	15
25.26	12
25.28	14
25.3	13
25.32	12
25.34	13
25.36	11
25.38	16
25.4	13
25.42	8
25.44	12
25.46	10
25.48	13
25.5	9
25.52	12
25.54	12
25.56	10
25.58	14
25.6	6
25.62	12
25.64	13
25.66	20
25.68	12
25.7	13
25.72	11
25.74	9
25.76	14
25.78	6
25.8	18
25.82	11
25.84	10
25.86	11
25.88	9
25.9	10
25.92	12
25.94	10
25.96	16
25.98	12
26	15
26.02	8
26.04	18
26.06	13
26.08	19
26.1	16
26.12	9
26.14	15
26.16	13
26.18	13
26.2	7
26.22	17
26.24	12
26.26	12
26.28	9
26.3	12
26.32	9
26.34	13
26.36	13
26.38	7
26.4	15
26.42	15
26.44	8
26.46	11
26.48	16
26.5	10
26.52	14
26.54	14
26.56	13
26.58	14
26.6	4
26.62	8
26.64	10
26.66	13
26.68	6
26.7	10
26.72	10
26.74	11
26.76	10
26.78	11
26.8	10
26.82	14
26.84	5
26.86	5
26.88	16
26.9	13
26.92	19
26.94	12
26.96	19
26.98	10
27	9
27.02	8
27.04	14
27.06	14
27.08	12
27.1	10
27.12	10
27.14	5
27.16	14
27.18	11
27.2	13
27.22	10
27.24	14
27.26	10
27.28	9
27.3	10
27.32	6
27.34	10
27.36	15
27.38	13
27.4	11
27.42	8
27.44	19
27.46	13
27.48	10
27.5	13
27.52	16
27.54	8
27.56	12
27.58	10
27.6	15
27.62	5
27.64	14
27.66	9
27.68	11
27.7	15
27.72	16
27.74	4
27.76	16
27.78	7
27.8	9
27.82	13
27.84	9
27.86	6
27.88	10
27.9	12
27.92	13
27.94	12
27.96	8
27.98	11
28	10
28.02	13
28.04	12
28.06	10
28.08	11
28.1	10
28.12	8
28.14	12
28.16	9
28.18	10
28.2	10
28.22	7
28.24	14
28.26	9
28.28	12
28.3	15
28.32	11
28.34	12
28.36	8
28.38	12
28.4	14
28.42	12
28.44	9
28.46	10
28.48	13
28.5	9
28.52	16
28.54	9
28.56	8
28.58	8
28.6	9
28.62	13
28.64	7
28.66	12
28.68	9
28.7	13
28.72	8
28.74	5
28.76	13
28.78	11
28.8	11
28.82	10
28.84	10
28.86	22
28.88	7
28.9	15
28.92	9
28.94	3
28.96	9
28.98	16
29	9
29.02	7
29.04	12
29.06	10
29.08	13
29.1	7
29.12	9
29.14	10
29.16	10
29.18	10
29.2	15
29.22	9
29.24	10
29.26	18
29.28	9
29.3	14
29.32	11
29.34	8
29.36	6
29.38	6
29.4	17
29.42	16
29.44	11
29.46	11
29.48	5
29.5	13
29.52	6
29.54	6
29.56	11
29.58	9
29.6	9
29.62	11
29.64	6
29.66	7
29.68	8
29.7	5
29.72	11
29.74	13
29.76	7
29.78	11
29.8	4
29.82	13
29.84	12
29.86	8
29.88	10
29.9	16
29.92	12
29.94	10
29.96	9
29.98	10
30	8
30.02	9
30.04	13
30.06	8
30.08	13
30.1	10
30.12	13
30.14	13
30.16	9
30.18	6
30.2	10
30.22	7
30.24	10
30.26	9
30.28	8
30.3	12
30.32	8
30.34	6
30.36	10
30.38	13
30.4	14
30.42	11
30.44	9
30.46	16
30.48	9
30.5	8
30.52	5
30.54	10
30.56	8
30.58	6
30.6	8
30.62	12
30.64	10
30.66	12
30.68	14
30.7	12
30.72	5
30.74	4
30.76	10
30.78	8
30.8	12
30.82	8
30.84	3
30.86	4
30.88	6
30.9	12
30.92	10
30.94	17
30.96	13
30.98	10
31	12
31.02	10
31.04	14
31.06	9
31.08	7
31.1	10
31.12	7
31.14	7
31.16	3
31.18	12
31.2	10
31.22	11
31.24	14
31.26	9
31.28	11
31.3	13
31.32	12
31.34	9
31.36	14
31.38	13
31.4	11
31.42	8
31.44	9
31.46	6
31.48	4
31.5	8
31.52	10
31.54	9
31.56	11
31.58	9
31.6	10
31.62	19
31.64	10
31.66	14
31.68	7
31.7	17
31.72	10
31.74	5
31.76	17
31.78	11
31.8	6
31.82	7
31.84	8
31.86	6
31.88	9
31.9	10
31.92	7
31.94	7
31.96	9
31.98	8
32	8
32.02	9
32.04	9
32.06	6
32.08	6
32.1	5
32.12	9
32.14	7
32.16	19
32.18	14
32.2	11
32.22	11
32.24	12
32.26	10
32.28	6
32.3	7
32.32	20
32.34	16
32.36	15
32.38	23
32.4	25
32.42	27
32.44	20
32.46	14
32.48	18
32.5	23
32.52	27
32.54	19
32.56	19
32.58	22
32.6	20
32.62	23
32.64	7
32.66	13
32.68	7
32.7	17
32.72	7
32.74	4
32.76	14
32.78	6
32.8	13
32.82	6
32.84	8
32.86	16
32.88	8
32.9	8
32.92	10
32.94	9
32.96	11
32.98	9
33	14
33.02	9
33.04	9
33.06	8
33.08	13
33.1	11
33.12	9
33.14	14
33.16	11
33.18	13
33.2	7
33.22	4
33.24	9
33.26	12
33.28	8
33.3	15
33.32	7
33.34	9
33.36	9
33.38	10
33.4	18
33.42	5
33.44	12
33.46	7
33.48	10
33.5	7
33.52	8
33.54	10
33.56	10
33.58	13
33.6	9
33.62	13
33.64	5
33.66	15
33.68	18
33.7	13
33.72	8
33.74	16
33.76	3
33.78	11
33.8	6
33.82	12
33.84	7
33.86	15
33.88	15
33.9	9
33.92	19
33.94	14
33.96	13
33.98	10
34	12
34.02	12
34.04	12
34.06	11
34.08	11
34.1	17
34.12	17
34.14	13
34.16	15
34.18	20
34.2	14
34.22	14
34.24	12
34.26	13
34.28	12
34.3	28
34.32	20
34.34	22
34.36	30
34.38	22
34.4	29
34.42	37
34.44	44
34.46	62
34.48	87
34.5	107
34.52	106
34.54	141
34.56	153
34.58	171
34.6	186
34.62	243
34.64	255
34.66	318
34.68	352
34.7	377
34.72	445
34.74	395
34.76	395
34.78	385
34.8	316
34.82	298
34.84	194
34.86	147
34.88	112
34.9	92
34.92	62
34.94	36
34.96	36
34.98	28
35	22
35.02	17
35.04	21
35.06	12
35.08	16
35.1	11
35.12	12
35.14	10
35.16	12
35.18	17
35.2	19
35.22	12
35.24	13
35.26	12
35.28	8
35.3	13
35.32	13
35.34	12
35.36	8
35.38	7
35.4	11
35.42	10
35.44	13
35.46	12
35.48	15
35.5	10
35.52	15
35.54	11
35.56	14
35.58	10
35.6	12
35.62	16
35.64	9
35.66	11
35.68	10
35.7	11
35.72	13
35.74	6
35.76	6
35.78	12
35.8	11
35.82	14
35.84	12
35.86	13
35.88	12
35.9	6
35.92	17
35.94	20
35.96	9
35.98	12
36	16
36.02	4
36.04	14
36.06	11
36.08	13
36.1	11
36.12	13
36.14	9
36.16	14
36.18	10
36.2	12
36.22	7
36.24	13
36.26	7
36.28	13
36.3	9
36.32	17
36.34	10
36.36	13
36.38	19
36.4	17
36.42	7
36.44	16
36.46	13
36.48	11
36.5	13
36.52	18
36.54	11
36.56	22
36.58	17
36.6	20
36.62	17
36.64	26
36.66	25
36.68	36
36.7	34
36.72	27
36.74	44
36.76	53
36.78	65
36.8	61
36.82	71
36.84	68
36.86	74
36.88	74
36.9	89
36.92	82
36.94	83
36.96	80
36.98	82
37	77
37.02	83
37.04	65
37.06	58
37.08	50
37.1	43
37.12	30
37.14	30
37.16	24
37.18	27
37.2	15
37.22	25
37.24	13
37.26	20
37.28	8
37.3	14
37.32	11
37.34	14
37.36	12
37.38	15
37.4	15
37.42	13
37.44	13
37.46	19
37.48	12
37.5	9
37.52	9
37.54	17
37.56	14
37.58	11
37.6	13
37.62	15
37.64	12
37.66	13
37.68	16
37.7	10
37.72	12
37.74	11
37.76	9
37.78	17
37.8	13
37.82	7
37.84	14
37.86	8
37.88	15
37.9	13
37.92	11
37.94	9
37.96	14
37.98	11
38	12
38.02	14
38.04	8
38.06	9
38.08	8
38.1	15
38.12	11
38.14	13
38.16	12
38.18	11
38.2	13
38.22	11
38.24	10
38.26	8
38.28	14
38.3	11
38.32	12
38.34	10
38.36	16
38.38	7
38.4	8
38.42	15
38.44	15
38.46	9
38.48	11
38.5	14
38.52	9
38.54	16
38.56	8
38.58	13
38.6	10
38.62	8
38.64	2
38.66	17
38.68	6
38.7	14
38.72	8
38.74	9
38.76	7
38.78	13
38.8	6
38.82	15
38.84	8
38.86	9
38.88	7
38.9	10
38.92	6
38.94	6
38.96	13
38.98	12
39	11
39.02	8
39.04	15
39.06	11
39.08	13
39.1	12
39.12	12
39.14	6
39.16	12
39.18	9
39.2	6
39.22	14
39.24	6
39.26	7
39.28	14
39.3	7
39.32	12
39.34	12
39.36	9
39.38	11
39.4	10
39.42	12
39.44	13
39.46	6
39.48	24
39.5	12
39.52	10
39.54	12
39.56	6
39.58	9
39.6	6
39.62	7
39.64	12
39.66	5
39.68	12
39.7	12
39.72	12
39.74	9
39.76	5
39.78	10
39.8	8
39.82	11
39.84	7
39.86	11
39.88	8
39.9	5
39.92	16
39.94	8
39.96	12
39.98	14
40	6
40.02	10
40.04	13
40.06	7
40.08	6
40.1	11
40.12	10
40.14	10
40.16	11
40.18	6
40.2	8
40.22	12
40.24	8
40.26	9
40.28	11
40.3	9
40.32	15
40.34	12
40.36	8
40.38	7
40.4	11
40.42	9
40.44	10
40.46	11
40.48	9
40.5	7
40.52	9
40.54	9
40.56	12
40.58	9
40.6	11
40.62	7
40.64	5
40.66	9
40.68	12
40.7	10
40.72	12
40.74	8
40.76	6
40.78	12
40.8	12
40.82	7
40.84	16
40.86	12
40.88	9
40.9	7
40.92	5
40.94	7
40.96	9
40.98	10
41	9
41.02	7
41.04	10
41.06	9
41.08	12
41.1	12
41.12	10
41.14	12
41.16	4
41.18	9
41.2	8
41.22	6
41.24	9
41.26	12
41.28	8
41.3	7
41.32	9
41.34	9
41.36	8
41.38	8
41.4	10
41.42	5
41.44	12
41.46	10
41.48	12
41.5	12
41.52	9
41.54	7
41.56	9
41.58	11
41.6	6
41.62	17
41.64	7
41.66	6
41.68	8
41.7	8
41.72	9
41.74	9
41.76	10
41.78	7
41.8	9
41.82	4
41.84	8
41.86	9
41.88	6
41.9	7
41.92	11
41.94	8
41.96	4
41.98	7
42	8
42.02	11
42.04	7
42.06	4
42.08	9
42.1	9
42.12	13
42.14	11
42.16	12
42.18	8
42.2	11
42.22	5
42.24	17
42.26	9
42.28	11
42.3	11
42.32	9
42.34	8
42.36	9
42.38	12
42.4	4
42.42	10
42.44	9
42.46	9
42.48	6
42.5	4
42.52	16
42.54	11
42.56	10
42.58	8
42.6	13
42.62	9
42.64	13
42.66	9
42.68	11
42.7	5
42.72	9
42.74	13
42.76	14
42.78	6
42.8	9
42.82	14
42.84	5
42.86	9
42.88	9
42.9	9
42.92	11
42.94	14
42.96	9
42.98	10
43	13
43.02	8
43.04	13
43.06	8
43.08	11
43.1	9
43.12	7
43.14	13
43.16	14
43.18	7
43.2	9
43.22	6
43.24	12
43.26	10
43.28	9
43.3	5
43.32	4
43.34	11
43.36	9
43.38	8
43.4	8
43.42	4
43.44	15
43.46	11
43.48	9
43.5	8
43.52	12
43.54	5
43.56	7
43.58	6
43.6	10
43.62	12
43.64	12
43.66	7
43.68	12
43.7	9
43.72	14
43.74	4
43.76	6
43.78	8
43.8	8
43.82	9
43.84	10
43.86	10
43.88	11
43.9	10
43.92	7
43.94	11
43.96	19
43.98	8
44	14
44.02	12
44.04	12
44.06	9
44.08	13
44.1	8
44.12	9
44.14	16
44.16	12
44.18	8
44.2	9
44.22	8
44.24	8
44.26	5
44.28	10
44.3	7
44.32	14
44.34	10
44.36	6
44.38	7
44.4	17
44.42	10
44.44	9
44.46	1
44.48	10
44.5	13
44.52	9
44.54	11
44.56	12
44.58	7
44.6	7
44.62	10
44.64	4
44.66	6
44.68	7
44.7	3
44.72	12
44.74	10
44.76	5
44.78	5
44.8	12
44.82	7
44.84	5
44.86	5
44.88	7
44.9	4
44.92	16
44.94	9
44.96	9
44.98	9
45	9
45.02	9
45.04	4
45.06	7
45.08	6
45.1	9
45.12	8
45.14	9
45.16	6
45.18	6
45.2	9
45.22	9
45.24	12
45.26	17
45.28	5
45.3	14
45.32	5
45.34	10
45.36	4
45.38	13
45.4	6
45.42	5
45.44	7
45.46	12
45.48	9
45.5	11
45.52	8
45.54	4
45.56	15
45.58	12
45.6	7
45.62	8
45.64	11
45.66	8
45.68	10
45.7	9
45.72	8
45.74	7
45.76	7
45.78	6
45.8	10
45.82	7
45.84	13
45.86	13
45.88	7
45.9	3
45.92	6
45.94	7
45.96	7
45.98	8
46	10
46.02	9
46.04	4
46.06	6
46.08	5
46.1	12
46.12	9
46.14	12
46.16	9
46.18	3
46.2	9
46.22	9
46.24	5
46.26	6
46.28	8
46.3	13
46.32	4
46.34	6
46.36	8
46.38	11
46.4	4
46.42	5
46.44	6
46.46	9
46.48	7
46.5	9
46.52	6
46.54	7
46.56	11
46.58	11
46.6	9
46.62	6
46.64	4
46.66	2
46.68	12
46.7	10
46.72	6
46.74	10
46.76	10
46.78	9
46.8	5
46.82	10
46.84	9
46.86	11
46.88	3
46.9	9
46.92	7
46.94	9
46.96	9
46.98	12
47	5
47.02	6
47.04	8
47.06	11
47.08	5
47.1	3
47.12	5
47.14	5
47.16	3
47.18	9
47.2	7
47.22	11
47.24	10
47.26	8
47.28	7
47.3	9
47.32	13
47.34	5
47.36	7
47.38	14
47.4	7
47.42	3
47.44	9
47.46	7
47.48	5
47.5	11
47.52	7
47.54	10
47.56	8
47.58	5
47.6	6
47.62	6
47.64	6
47.66	10
47.68	8
47.7	6
47.72	8
47.74	10
47.76	9
47.78	10
47.8	9
47.82	12
47.84	21
47.86	13
47.88	10
47.9	16
47.92	12
47.94	19
47.96	22
47.98	24
48	19
48.02	35
48.04	22
48.06	41
48.08	34
48.1	19
48.12	36
48.14	29
48.16	35
48.18	44
48.2	24
48.22	37
48.24	37
48.26	36
48.28	28
48.3	26
48.32	31
48.34	21
48.36	28
48.38	21
48.4	13
48.42	11
48.44	15
48.46	12
48.48	12
48.5	8
48.52	6
48.54	10
48.56	13
48.58	8
48.6	8
48.62	13
48.64	8
48.66	7
48.68	9
48.7	7
48.72	3
48.74	12
48.76	11
48.78	12
48.8	11
48.82	5
48.84	8
48.86	6
48.88	5
48.9	6
48.92	10
48.94	10
48.96	8
48.98	11
49	9
49.02	5
49.04	3
49.06	4
49.08	11
49.1	7
49.12	9
49.14	10
49.16	10
49.18	8
49.2	8
49.22	7
49.24	4
49.26	5
49.28	4
49.3	5
49.32	10
49.34	7
49.36	8
49.38	7
49.4	8
49.42	6
49.44	10
49.46	8
49.48	5
49.5	8
49.52	7
49.54	3
49.56	4
49.58	12
49.6	7
49.62	5
49.64	6
49.66	5
49.68	4
49.7	4
49.72	11
49.74	5
49.76	6
49.78	7
49.8	5
49.82	8
49.84	8
49.86	13
49.88	3
49.9	3
49.92	8
49.94	13
49.96	6
49.98	11
50	7
50.02	14
50.04	11
50.06	4
50.08	6
50.1	6
50.12	7
50.14	9
50.16	8
50.18	7
50.2	5
50.22	5
50.24	9
50.26	4
50.28	6
50.3	3
50.32	7
50.34	8
50.36	2
50.38	7
50.4	5
50.42	8
50.44	11
50.46	9
50.48	5
50.5	6
50.52	3
50.54	4
50.56	5
50.58	4
50.6	6
50.62	8
50.64	4
50.66	3
50.68	3
50.7	9
50.72	4
50.74	5
50.76	5
50.78	4
50.8	4
50.82	8
50.84	9
50.86	6
50.88	7
50.9	9
50.92	8
50.94	3
50.96	8
50.98	6
51	2
51.02	6
51.04	3
51.06	1
51.08	10
51.1	9
51.12	2
51.14	1
51.16	5
51.18	12
51.2	13
51.22	11
51.24	6
51.26	8
51.28	6
51.3	8
51.32	5
51.34	5
51.36	8
51.38	10
51.4	3
51.42	4
51.44	10
51.46	5
51.48	13
51.5	8
51.52	11
51.54	5
51.56	7
51.58	4
51.6	11
51.62	11
51.64	6
51.66	5
51.68	7
51.7	4
51.72	9
51.74	8
51.76	5
51.78	5
51.8	9
51.82	6
51.84	5
51.86	2
51.88	7
51.9	7
51.92	10
51.94	10
51.96	4
51.98	7
52	4
52.02	11
52.04	4
52.06	5
52.08	6
52.1	5
52.12	7
52.14	3
52.16	3
52.18	7
52.2	6
52.22	4
52.24	12
52.26	6
52.28	7
52.3	8
52.32	3
52.34	9
52.36	2
52.38	4
52.4	5
52.42	2
52.44	4
52.46	10
52.48	3
52.5	8
52.52	7
52.54	5
52.56	8
52.58	8
52.6	6
52.62	4
52.64	7
52.66	7
52.68	4
52.7	5
52.72	10
52.74	7
52.76	5
52.78	11
52.8	6
52.82	6
52.84	3
52.86	4
52.88	8
52.9	13
52.92	5
52.94	6
52.96	8
52.98	4
53	2
53.02	8
53.04	4
53.06	3
53.08	4
53.1	8
53.12	4
53.14	5
53.16	7
53.18	12
53.2	5
53.22	6
53.24	7
53.26	2
53.28	9
53.3	6
53.32	7
53.34	10
53.36	5
53.38	4
53.4	4
53.42	10
53.44	5
53.46	3
53.48	10
53.5	11
53.52	5
53.54	9
53.56	9
53.58	5
53.6	8
53.62	7
53.64	4
53.66	4
53.68	4
53.7	10
53.72	6
53.74	9
53.76	4
53.78	5
53.8	7
53.82	8
53.84	1
53.86	4
53.88	3
53.9	7
53.92	4
53.94	6
53.96	5
53.98	14
54	4
54.02	8
54.04	8
54.06	7
54.08	5
54.1	7
54.12	1
54.14	5
54.16	3
54.18	12
54.2	9
54.22	9
54.24	6
54.26	5
54.28	6
54.3	5
54.32	7
54.34	6
54.36	8
54.38	5
54.4	9
54.42	8
54.44	7
54.46	6
54.48	4
54.5	5
54.52	1
54.54	2
54.56	6
54.58	6
54.6	6
54.62	5
54.64	9
54.66	5
54.68	8
54.7	4
54.72	6
54.74	9
54.76	5
54.78	4
54.8	7
54.82	5
54.84	5
54.86	9
54.88	3
54.9	2
54.92	6
54.94	4
54.96	6
54.98	4
55	2
55.02	13
55.04	8
55.06	4
55.08	1
55.1	12
55.12	3
55.14	5
55.16	5
55.18	8
55.2	4
55.22	5
55.24	5
55.26	9
55.28	7
55.3	2
55.32	6
55.34	7
55.36	5
55.38	7
55.4	8
55.42	2
55.44	9
55.46	6
55.48	7
55.5	3
55.52	5
55.54	5
55.56	5
55.58	4
55.6	6
55.62	3
55.64	5
55.66	5
55.68	7
55.7	4
55.72	7
55.74	8
55.76	6
55.78	4
55.8	4
55.82	8
55.84	2
55.86	10
55.88	6
55.9	3
55.92	7
55.94	5
55.96	7
55.98	2
56	4
56.02	8
56.04	9
56.06	6
56.08	4
56.1	7
56.12	4
56.14	6
56.16	2
56.18	12
56.2	7
56.22	5
56.24	9
56.26	12
56.28	7
56.3	6
56.32	6
56.34	2
56.36	10
56.38	6
56.4	5
56.42	3
56.44	4
56.46	11
56.48	7
56.5	5
56.52	15
56.54	8
56.56	5
56.58	12
56.6	10
56.62	4
56.64	4
56.66	8
56.68	3
56.7	7
56.72	9
56.74	5
56.76	3
56.78	10
56.8	5
56.82	6
56.84	7
56.86	6
56.88	8
56.9	7
56.92	9
56.94	4
56.96	4
56.98	4
57	7
57.02	4
57.04	4
57.06	5
57.08	5
57.1	2
57.12	7
57.14	4
57.16	10
57.18	5
57.2	6
57.22	5
57.24	3
57.26	6
57.28	6
57.3	4
57.32	7
57.34	4
57.36	2
57.38	5
57.4	7
57.42	7
57.44	4
57.46	7
57.48	2
57.5	8
57.52	4
57.54	14
57.56	7
57.58	5
57.6	6
57.62	9
57.64	9
57.66	9
57.68	9
57.7	4
57.72	5
57.74	9
57.76	10
57.78	7
57.8	11
57.82	6
57.84	7
57.86	8
57.88	9
57.9	5
57.92	13
57.94	7
57.96	12
57.98	9
58	10
58.02	8
58.04	7
58.06	8
58.08	10
58.1	9
58.12	7
58.14	7
58.16	7
58.18	5
58.2	9
58.22	6
58.24	2
58.26	6
58.28	9
58.3	1
58.32	11
58.34	6
58.36	9
58.38	3
58.4	6
58.42	3
58.44	4
58.46	4
58.48	10
58.5	6
58.52	6
58.54	2
58.56	2
58.58	4
58.6	5
58.62	4
58.64	6
58.66	6
58.68	7
58.7	5
58.72	7
58.74	5
58.76	1
58.78	2
58.8	6
58.82	4
58.84	6
58.86	4
58.88	9
58.9	2
58.92	7
58.94	6
58.96	4
58.98	8
59	3
59.02	3
59.04	7
59.06	3
59.08	6
59.1	4
59.12	5
59.14	8
59.16	3
59.18	10
59.2	5
59.22	9
59.24	10
59.26	7
59.28	7
59.3	6
59.32	7
59.34	3
59.36	6
59.38	11
59.4	4
59.42	7
59.44	7
59.46	5
59.48	6
59.5	5
59.52	8
59.54	6
59.56	8
59.58	6
59.6	2
59.62	4
59.64	2
59.66	5
59.68	7
59.7	9
59.72	8
59.74	3
59.76	6
59.78	4
59.8	9
59.82	15
59.84	10
59.86	7
59.88	8
59.9	6
59.92	3
59.94	4
59.96	2
59.98	10
60	7
60.02	7
60.04	3
60.06	2
60.08	4
60.1	4
60.12	5
60.14	6
60.16	3
60.18	6
60.2	7
60.22	7
60.24	7
60.26	2
60.28	9
60.3	6
60.32	2
60.34	6
60.36	4
60.38	6
60.4	3
60.42	4
60.44	8
60.46	5
60.48	6
60.5	5
60.52	6
60.54	1
60.56	6
60.58	8
60.6	4
60.62	3
60.64	6
60.66	6
60.68	6
60.7	3
60.72	4
60.74	12
60.76	11
60.78	5
60.8	3
60.82	6
60.84	4
60.86	7
60.88	4
60.9	7
60.92	6
60.94	6
60.96	6
60.98	5
61	7
61.02	6
61.04	2
61.06	2
61.08	10
61.1	5
61.12	9
61.14	7
61.16	4
61.18	3
61.2	6
61.22	7
61.24	6
61.26	5
61.28	4
61.3	6
61.32	5
61.34	5
61.36	6
61.38	9
61.4	1
61.42	13
61.44	9
61.46	9
61.48	6
61.5	6
61.52	6
61.54	5
61.56	4
61.58	6
61.6	8
61.62	5
61.64	13
61.66	8
61.68	4
61.7	5
61.72	10
61.74	5
61.76	5
61.78	10
61.8	6
61.82	8
61.84	15
61.86	4
61.88	9
61.9	6
61.92	5
61.94	5
61.96	8
61.98	12
62	1
62.02	4
62.04	4
62.06	7
62.08	3
62.1	5
62.12	7
62.14	6
62.16	8
62.18	4
62.2	9
62.22	7
62.24	6
62.26	5
62.28	9
62.3	4
62.32	6
62.34	4
62.36	3
62.38	6
62.4	6
62.42	10
62.44	5
62.46	5
62.48	5
62.5	12
62.52	9
62.54	9
62.56	10
62.58	6
62.6	8
62.62	8
62.64	7
62.66	10
62.68	7
62.7	5
62.72	7
62.74	4
62.76	6
62.78	6
62.8	8
62.82	8
62.84	8
62.86	10
62.88	6
62.9	8
62.92	2
62.94	14
62.96	11
62.98	9
63	6
63.02	14
63.04	18
63.06	12
63.08	17
63.1	15
63.12	14
63.14	18
63.16	25
63.18	28
63.2	22
63.22	37
63.24	36
63.26	37
63.28	42
63.3	41
63.32	52
63.34	61
63.36	63
63.38	81
63.4	76
63.42	105
63.44	92
63.46	94
63.48	93
63.5	89
63.52	104
63.54	118
63.56	106
63.58	103
63.6	96
63.62	79
63.64	90
63.66	74
63.68	65
63.7	53
63.72	53
63.74	46
63.76	45
63.78	40
63.8	22
63.82	28
63.84	25
63.86	21
63.88	14
63.9	7
63.92	11
63.94	15
63.96	10
63.98	11
64	8
64.02	8
64.04	6
64.06	13
64.08	8
64.1	6
64.12	6
64.14	12
64.16	12
64.18	2
64.2	5
64.22	4
64.24	6
64.26	7
64.28	4
64.3	11
64.32	9
64.34	2
64.36	8
64.38	8
64.4	8
64.42	6
64.44	5
64.46	5
64.48	12
64.5	7
64.52	9
64.54	0
64.56	3
64.58	4
64.6	4
64.62	12
64.64	6
64.66	4
64.68	3
64.7	6
64.72	10
64.74	6
64.76	7
64.78	9
64.8	10
64.82	7
64.84	5
64.86	6
64.88	7
64.9	8
64.92	9
64.94	5
64.96	5
64.98	9
65	11
65.02	13
65.04	12
65.06	10
65.08	7
65.1	8
65.12	6
65.14	11
65.16	9
65.18	5
65.2	3
65.22	9
65.24	8
65.26	3
65.28	4
65.3	8
65.32	4
65.34	3
65.36	8
65.38	10
65.4	9
65.42	8
65.44	6
65.46	11
65.48	8
65.5	13
65.52	6
65.54	2
65.56	10
65.58	5
65.6	3
65.62	4
65.64	4
65.66	3
65.68	8
65.7	3
65.72	9
65.74	1
65.76	8
65.78	7
65.8	7
65.82	6
65.84	3
65.86	6
65.88	5
65.9	6
65.92	5
65.94	3
65.96	8
65.98	10
66	6
66.02	10
66.04	7
66.06	2
66.08	6
66.1	4
66.12	9
66.14	5
66.16	7
66.18	5
66.2	5
66.22	8
66.24	6
66.26	5
66.28	7
66.3	9
66.32	8
66.34	9
66.36	8
66.38	8
66.4	1
66.42	6
66.44	10
66.46	4
66.48	7
66.5	5
66.52	4
66.54	3
66.56	5
66.58	4
66.6	10
66.62	7
66.64	5
66.66	5
66.68	5
66.7	7
66.72	8
66.74	5
66.76	3
66.78	4
66.8	6
66.82	10
66.84	6
66.86	6
66.88	8
66.9	6
66.92	7
66.94	10
66.96	8
66.98	6
67	5
67.02	9
67.04	5
67.06	4
67.08	5
67.1	6
67.12	9
67.14	9
67.16	6
67.18	7
67.2	12
67.22	9
67.24	8
67.26	6
67.28	6
67.3	9
67.32	6
67.34	5
67.36	8
67.38	1
67.4	1
67.42	8
67.44	3
67.46	4
67.48	6
67.5	3
67.52	4
67.54	5
67.56	5
67.58	2
67.6	10
67.62	6
67.64	5
67.66	7
67.68	6
67.7	17
67.72	10
67.74	9
67.76	5
67.78	7
67.8	6
67.82	6
67.84	11
67.86	9
67.88	4
67.9	15
67.92	11
67.94	10
67.96	13
67.98	9
68	5
68.02	6
68.04	7
68.06	5
68.08	7
68.1	3
68.12	4
68.14	10
68.16	10
68.18	4
68.2	6
68.22	5
68.24	10
68.26	10
68.28	13
68.3	5
68.32	3
68.34	6
68.36	3
68.38	4
68.4	4
68.42	8
68.44	6
68.46	8
68.48	6
68.5	7
68.52	5
68.54	5
68.56	10
68.58	9
68.6	7
68.62	3
68.64	5
68.66	3
68.68	8
68.7	11
68.72	6
68.74	10
68.76	6
68.78	6
68.8	7
68.82	9
68.84	9
68.86	6
68.88	8
68.9	18
68.92	13
68.94	15
68.96	6
68.98	11
69	13
69.02	19
69.04	15
69.06	17
69.08	11
69.1	9
69.12	18
69.14	17
69.16	13
69.18	12
69.2	23
69.22	13
69.24	20
69.26	12
69.28	12
69.3	14
69.32	8
69.34	12
69.36	18
69.38	10
69.4	7
69.42	9
69.44	12
69.46	10
69.48	9
69.5	12
69.52	4
69.54	7
69.56	3
69.58	6
69.6	9
69.62	5
69.64	7
69.66	15
69.68	10
69.7	7
69.72	6
69.74	8
69.76	7
69.78	9
69.8	6
69.82	4
69.84	8
69.86	3
69.88	5
69.9	5
69.92	5
69.94	9
69.96	7
69.98	2
70	7
70.02	10
70.04	10
70.06	1
70.08	8
70.1	11
70.12	10
70.14	13
70.16	4
70.18	10
70.2	4
70.22	7
70.24	11
70.26	5
70.28	7
70.3	10
70.32	11
70.34	9
70.36	5
70.38	10
70.4	9
70.42	13
70.44	8
70.46	10
70.48	13
70.5	16
70.52	8
70.54	13
70.56	16
70.58	12
70.6	11
70.62	7
70.64	9
70.66	8
70.68	14
70.7	11
70.72	9
70.74	10
70.76	8
70.78	8
70.8	5
70.82	11
70.84	4
70.86	4
70.88	8
70.9	7
70.92	5
70.94	11
70.96	4
70.98	8
71	5
71.02	9
71.04	4
71.06	8
71.08	6
71.1	4
71.12	6
71.14	9
71.16	3
71.18	8
71.2	6
71.22	6
71.24	6
71.26	4
71.28	11
71.3	6
71.32	3
71.34	9
71.36	3
71.38	5
71.4	5
71.42	6
71.44	13
71.46	4
71.48	11
71.5	5
71.52	4
71.54	5
71.56	10
71.58	9
71.6	4
71.62	6
71.64	7
71.66	5
71.68	8
71.7	6
71.72	10
71.74	5
71.76	3
71.78	4
71.8	4
71.82	5
71.84	6
71.86	3
71.88	8
71.9	9
71.92	13
71.94	7
71.96	1
71.98	3
72	5
72.02	8
72.04	6
72.06	6
72.08	6
72.1	9
72.12	4
72.14	7
72.16	6
72.18	10
72.2	3
72.22	5
72.24	6
72.26	7
72.28	5
72.3	5
72.32	4
72.34	1
72.36	7
72.38	8
72.4	7
72.42	5
72.44	9
72.46	12
72.48	7
72.5	10
72.52	2
72.54	14
72.56	15
72.58	11
72.6	12
72.62	6
72.64	11
72.66	9
72.68	12
72.7	13
72.72	10
72.74	11
72.76	13
72.78	22
72.8	18
72.82	26
72.84	24
72.86	27
72.88	35
72.9	33
72.92	45
72.94	32
72.96	33
72.98	50
73	49
73.02	40
73.04	51
73.06	39
73.08	30
73.1	31
73.12	50
73.14	28
73.16	32
73.18	27
73.2	24
73.22	24
73.24	26
73.26	23
73.28	24
73.3	10
73.32	12
73.34	9
73.36	11
73.38	10
73.4	12
73.42	9
73.44	8
73.46	11
73.48	4
73.5	10
73.52	3
73.54	11
73.56	5
73.58	2
73.6	8
73.62	3
73.64	10
73.66	9
73.68	6
73.7	15
73.72	4
73.74	8
73.76	4
73.78	11
73.8	5
73.82	6
73.84	3
73.86	7
73.88	5
73.9	9
73.92	11
73.94	7
73.96	5
73.98	6
74	6
74.02	9
74.04	2
74.06	3
74.08	7
74.1	6
74.12	6
74.14	7
74.16	6
74.18	4
74.2	10
74.22	9
74.24	5
74.26	7
74.28	8
74.3	6
74.32	5
74.34	7
74.36	8
74.38	5
74.4	7
74.42	12
74.44	11
74.46	6
74.48	5
74.5	7
74.52	11
74.54	3
74.56	5
74.58	0
74.6	10
74.62	7
74.64	4
74.66	5
74.68	7
74.7	11
74.72	6
74.74	2
74.76	2
74.78	8
74.8	4
74.82	3
74.84	10
74.86	8
74.88	5
74.9	7
74.92	4
74.94	5
74.96	9
74.98	13
75	9
75.02	4
75.04	2
75.06	9
75.08	10
75.1	6
75.12	7
75.14	5
75.16	11
75.18	5
75.2	10
75.22	6
75.24	3
75.26	9
75.28	5
75.3	3
75.32	7
75.34	7
75.36	6
75.38	7
75.4	10
75.42	1
75.44	12
75.46	6
75.48	7
75.5	6
75.52	4
75.54	9
75.56	6
75.58	4
75.6	4
75.62	9
75.64	10
75.66	7
75.68	8
75.7	5
75.72	1
75.74	6
75.76	4
75.78	7
75.8	7
75.82	2
75.84	7
75.86	7
75.88	6
75.9	4
75.92	4
75.94	10
75.96	5
75.98	3
76	7
76.02	6
76.04	5
76.06	3
76.08	9
76.1	5
76.12	3
76.14	8
76.16	1
76.18	10
76.2	4
76.22	6
76.24	3
76.26	5
76.28	4
76.3	1
76.32	7
76.34	11
76.36	6
76.38	9
76.4	5
76.42	3
76.44	7
76.46	5
76.48	7
76.5	7
76.52	10
76.54	9
76.56	4
76.58	8
76.6	3
76.62	8
76.64	6
76.66	6
76.68	8
76.7	5
76.72	9
76.74	6
76.76	7
76.78	7
76.8	7
76.82	7
76.84	8
76.86	3
76.88	5
76.9	6
76.92	1
76.94	6
76.96	5
76.98	9
77	3
77.02	5
77.04	7
77.06	6
77.08	6
77.1	6
77.12	7
77.14	9
77.16	4
77.18	7
77.2	8
77.22	5
77.24	6
77.26	5
77.28	3
77.3	8
77.32	3
77.34	4
77.36	6
77.38	10
77.4	7
77.42	4
77.44	5
77.46	4
77.48	7
77.5	6
77.52	5
77.54	5
77.56	7
77.58	7
77.6	7
77.62	2
77.64	4
77.66	2
77.68	2
77.7	5
77.72	11
77.74	5
77.76	4
77.78	4
77.8	6
77.82	11
77.84	8
77.86	7
77.88	1
77.9	6
77.92	7
77.94	10
77.96	4
77.98	3
78	7
78.02	5
78.04	4
78.06	2
78.08	10
78.1	8
78.12	9
78.14	6
78.16	4
78.18	7
78.2	4
78.22	9
78.24	6
78.26	8
78.28	6
78.3	10
78.32	7
78.34	5
78.36	9
78.38	3
78.4	14
78.42	6
78.44	10
78.46	4
78.48	7
78.5	5
78.52	5
78.54	3
78.56	10
78.58	8
78.6	4
78.62	6
78.64	8
78.66	9
78.68	6
78.7	7
78.72	3
78.74	5
78.76	4
78.78	8
78.8	5
78.82	6
78.84	6
78.86	9
78.88	5
78.9	6
78.92	9
78.94	5
78.96	5
78.98	7
79	4
79.02	9
79.04	7
79.06	8
79.08	7
79.1	3
79.12	9
79.14	6
79.16	6
79.18	3
79.2	4
79.22	8
79.24	8
79.26	5
79.28	1
79.3	7
79.32	11
79.34	3
79.36	9
79.38	3
79.4	5
79.42	5
79.44	5
79.46	3
79.48	4
79.5	6
79.52	5
79.54	4
79.56	5
79.58	5
79.6	5
79.62	4
79.64	5
79.66	8
79.68	7
79.7	5
79.72	7
79.74	7
79.76	8
79.78	6
79.8	4
79.82	5
79.84	6
79.86	6
79.88	9
79.9	5
79.92	5
79.94	6
79.96	11
79.98	7
80	3
80.02	7
80.04	3
80.06	3
80.08	9
80.1	6
80.12	2
80.14	6
80.16	8
80.18	7
80.2	10
80.22	9
80.24	4
80.26	5
80.28	7
80.3	3
80.32	8
80.34	7
80.36	5
80.38	11
80.4	2
80.42	8
80.44	5
80.46	5
80.48	10
80.5	7
80.52	8
80.54	6
80.56	3
80.58	10
80.6	4
80.62	5
80.64	8
80.66	7
80.68	4
80.7	4
80.72	7
80.74	6
80.76	10
80.78	1
80.8	7
80.82	5
80.84	5
80.86	9
80.88	6
80.9	11
80.92	7
80.94	8
80.96	3
80.98	3
81	4
81.02	4
81.04	4
81.06	5
81.08	4
81.1	7
81.12	6
81.14	11
81.16	3
81.18	9
81.2	7
81.22	9
81.24	6
81.26	4
81.28	7
81.3	3
81.32	6
81.34	6
81.36	6
81.38	6
81.4	7
81.42	1
81.44	6
81.46	4
81.48	3
81.5	5
81.52	2
81.54	10
81.56	10
81.58	7
81.6	6
81.62	3
81.64	7
81.66	16
81.68	9
81.7	10
81.72	13
81.74	10
81.76	15
81.78	8
81.8	13
81.82	11
81.84	14
81.86	14
81.88	14
81.9	14
81.92	15
81.94	23
81.96	13
81.98	19
82	12
82.02	11
82.04	19
82.06	26
82.08	23
82.1	15
82.12	29
82.14	27
82.16	23
82.18	12
82.2	22
82.22	16
82.24	21
82.26	9
82.28	9
82.3	8
82.32	15
82.34	13
82.36	15
82.38	18
82.4	16
82.42	10
82.44	15
82.46	9
82.48	5
82.5	5
82.52	7
82.54	11
82.56	6
82.58	10
82.6	9
82.62	2
82.64	8
82.66	6
82.68	5
82.7	3
82.72	6
82.74	11
82.76	7
82.78	5
82.8	9
82.82	6
82.84	7
82.86	11
82.88	3
82.9	4
82.92	4
82.94	10
82.96	6
82.98	10
83	5
83.02	5
83.04	7
83.06	1
83.08	3
83.1	8
83.12	4
83.14	4
83.16	11
83.18	3
83.2	3
83.22	5
83.24	7
83.26	11
83.28	5
83.3	2
83.32	5
83.34	7
83.36	8
83.38	8
83.4	5
83.42	6
83.44	7
83.46	4
83.48	5
83.5	5
83.52	7
83.54	9
83.56	8
83.58	3
83.6	3
83.62	4
83.64	5
83.66	6
83.68	5
83.7	10
83.72	10
83.74	9
83.76	9
83.78	1
83.8	5
83.82	6
83.84	6
83.86	10
83.88	9
83.9	6
83.92	8
83.94	6
83.96	11
83.98	7
84	6
84.02	8
84.04	4
84.06	3
84.08	6
84.1	6
84.12	6
84.14	4
84.16	6
84.18	6
84.2	5
84.22	8
84.24	6
84.26	2
84.28	9
84.3	6
84.32	3
84.34	7
84.36	8
84.38	3
84.4	7
84.42	6
84.44	7
84.46	10
84.48	4
84.5	5
84.52	8
84.54	2
84.56	5
84.58	3
84.6	5
84.62	4
84.64	6
84.66	4
84.68	9
84.7	4
84.72	2
84.74	4
84.76	5
84.78	7
84.8	6
84.82	5
84.84	6
84.86	5
84.88	3
84.9	4
84.92	2
84.94	8
84.96	6
84.98	2
85	3
85.02	6
85.04	2
85.06	6
85.08	4
85.1	4
85.12	4
85.14	5
85.16	8
85.18	7
85.2	6
85.22	6
85.24	5
85.26	7
85.28	6
85.3	5
85.32	3
85.34	2
85.36	3
85.38	6
85.4	8
85.42	6
85.44	8
85.46	6
85.48	9
85.5	13
85.52	2
85.54	7
85.56	5
85.58	4
85.6	2
85.62	3
85.64	1
85.66	1
85.68	4
85.7	5
85.72	6
85.74	6
85.76	9
85.78	4
85.8	7
85.82	9
85.84	6
85.86	7
85.88	3
85.9	4
85.92	9
85.94	7
85.96	4
85.98	4
86	10
86.02	5
86.04	8
86.06	4
86.08	5
86.1	9
86.12	5
86.14	4
86.16	3
86.18	6
86.2	5
86.22	3
86.24	3
86.26	9
86.28	5
86.3	5
86.32	7
86.34	9
86.36	9
86.38	5
86.4	5
86.42	7
86.44	5
86.46	5
86.48	3
86.5	7
86.52	3
86.54	8
86.56	6
86.58	4
86.6	5
86.62	7
86.64	3
86.66	9
86.68	10
86.7	6
86.72	5
86.74	7
86.76	3
86.78	5
86.8	7
86.82	3
86.84	9
86.86	3
86.88	5
86.9	7
86.92	9
86.94	2
86.96	5
86.98	5
87	7
87.02	7
87.04	2
87.06	7
87.08	3
87.1	2
87.12	10
87.14	4
87.16	7
87.18	7
87.2	4
87.22	5
87.24	4
87.26	7
87.28	7
87.3	3
87.32	4
87.34	3
87.36	7
87.38	1
87.4	6
87.42	8
87.44	6
87.46	6
87.48	5
87.5	6
87.52	9
87.54	3
87.56	2
87.58	12
87.6	6
87.62	5
87.64	4
87.66	1
87.68	5
87.7	10
87.72	2
87.74	6
87.76	6
87.78	9
87.8	3
87.82	6
87.84	5
87.86	8
87.88	4
87.9	7
87.92	9
87.94	5
87.96	6
87.98	4
88	4
88.02	3
88.04	5
88.06	9
88.08	3
88.1	1
88.12	8
88.14	3
88.16	6
88.18	3
88.2	11
88.22	4
88.24	5
88.26	5
88.28	9
88.3	4
88.32	8
88.34	4
88.36	7
88.38	3
88.4	1
88.42	2
88.44	4
88.46	5
88.48	4
88.5	4
88.52	6
88.54	14
88.56	6
88.58	1
88.6	4
88.62	2
88.64	5
88.66	5
88.68	5
88.7	4
88.72	10
88.74	4
88.76	6
88.78	4
88.8	4
88.82	4
88.84	5
88.86	4
88.88	8
88.9	7
88.92	8
88.94	8
88.96	2
88.98	1
89	6
89.02	4
89.04	5
89.06	5
89.08	9
89.1	6
89.12	4
89.14	10
89.16	2
89.18	5
89.2	4
89.22	11
89.24	9
89.26	5
89.28	4
89.3	4
89.32	5
89.34	12
89.36	7
89.38	4
89.4	3
89.42	10
89.44	9
89.46	3
89.48	2
89.5	6
89.52	8
89.54	2
89.56	6
89.58	4
89.6	3
89.62	4
89.64	8
89.66	1
89.68	6
89.7	3
89.72	7
89.74	6
89.76	11
89.78	6
89.8	11
89.82	9
89.84	5
89.86	3
89.88	5
89.9	5
89.92	1
89.94	6
89.96	10
89.98	5
90	8
90.02	6
90.04	2
90.06	3
90.08	7
90.1	3
90.12	8
90.14	3
90.16	6
90.18	7
90.2	4
90.22	8
90.24	5
90.26	5
90.28	8
90.3	3
90.32	11
90.34	5
90.36	5
90.38	8
90.4	5
90.42	2
90.44	7
90.46	6
90.48	3
90.5	3
90.52	8
90.54	6
90.56	3
90.58	10
90.6	8
90.62	3
90.64	7
90.66	4
90.68	7
90.7	9
90.72	5
90.74	4
90.76	4
90.78	6
90.8	4
90.82	5
90.84	3
90.86	5
90.88	6
90.9	9
90.92	7
90.94	7
90.96	6
90.98	8
91	9
91.02	10
91.04	10
91.06	10
91.08	13
91.1	8
91.12	13
91.14	11
91.16	8
91.18	7
91.2	17
91.22	4
91.24	13
91.26	6
91.28	10
91.3	5
91.32	17
91.34	7
91.36	11
91.38	12
91.4	14
91.42	11
91.44	9
91.46	11
91.48	10
91.5	8
91.52	5
91.54	7
91.56	7
91.58	10
91.6	4
91.62	7
91.64	5
91.66	10
91.68	10
91.7	6
91.72	8
91.74	3
91.76	7
91.78	7
91.8	9
91.82	7
91.84	10
91.86	9
91.88	6
91.9	6
91.92	9
91.94	1
91.96	7
91.98	5
92	7
92.02	5
92.04	3
92.06	4
92.08	3
92.1	4
92.12	5
92.14	5
92.16	4
92.18	6
92.2	8
92.22	6
92.24	4
92.26	2
92.28	5
92.3	3
92.32	6
92.34	6
92.36	10
92.38	4
92.4	5
92.42	6
92.44	7
92.46	4
92.48	4
92.5	5
92.52	5
92.54	2
92.56	8
92.58	8
92.6	4
92.62	5
92.64	3
92.66	8
92.68	5
92.7	1
92.72	7
92.74	4
92.76	6
92.78	5
92.8	4
92.82	9
92.84	3
92.86	4
92.88	6
92.9	11
92.92	6
92.94	6
92.96	7
92.98	9
93	7
93.02	8
93.04	3
93.06	6
93.08	5
93.1	7
93.12	2
93.14	8
93.16	3
93.18	6
93.2	2
93.22	4
93.24	8
93.26	7
93.28	5
93.3	6
93.32	5
93.34	8
93.36	14
93.38	8
93.4	7
93.42	5
93.44	1
93.46	6
93.48	7
93.5	7
93.52	7
93.54	4
93.56	5
93.58	7
93.6	6
93.62	7
93.64	8
93.66	10
93.68	3
93.7	2
93.72	6
93.74	3
93.76	3
93.78	5
93.8	5
93.82	7
93.84	6
93.86	5
93.88	5
93.9	1
93.92	8
93.94	7
93.96	3
93.98	9
94	6
94.02	5
94.04	5
94.06	5
94.08	7
94.1	7
94.12	2
94.14	4
94.16	8
94.18	10
94.2	4
94.22	3
94.24	2
94.26	3
94.28	4
94.3	5
94.32	11
94.34	10
94.36	7
94.38	5
94.4	7
94.42	6
94.44	10
94.46	3
94.48	7
94.5	5
94.52	8
94.54	6
94.56	11
94.58	3
94.6	5
94.62	8
94.64	8
94.66	7
94.68	6
94.7	7
94.72	6
94.74	6
94.76	6
94.78	13
94.8	4
94.82	5
94.84	6
94.86	7
94.88	5
94.9	7
94.92	9
94.94	5
94.96	5
94.98	7
95	8
95.02	13
95.04	6
95.06	7
95.08	5
95.1	8
95.12	6
95.14	4
95.16	3
95.18	7
95.2	8
95.22	4
95.24	2
95.26	4
95.28	5
95.3	6
95.32	8
95.34	6
95.36	6
95.38	8
95.4	7
95.42	5
95.44	4
95.46	3
95.48	3
95.5	7
95.52	8
95.54	13
95.56	6
95.58	3
95.6	6
95.62	4
95.64	5
95.66	8
95.68	6
95.7	6
95.72	6
95.74	5
95.76	3
95.78	8
95.8	3
95.82	8
95.84	4
95.86	6
95.88	6
95.9	5
95.92	6
95.94	5
95.96	9
95.98	9
96	1
96.02	9
96.04	4
96.06	7
96.08	6
96.1	10
96.12	9
96.14	5
96.16	6
96.18	5
96.2	5
96.22	13
96.24	12
96.26	5
96.28	7
96.3	5
96.32	4
96.34	5
96.36	3
96.38	5
96.4	7
96.42	4
96.44	7
96.46	10
96.48	5
96.5	8
96.52	5
96.54	7
96.56	7
96.58	9
96.6	3
96.62	5
96.64	3
96.66	8
96.68	4
96.7	6
96.72	6
96.74	3
96.76	7
96.78	5
96.8	6
96.82	6
96.84	5
96.86	6
96.88	14
96.9	3
96.92	6
96.94	2
96.96	5
96.98	11
97	6
97.02	3
97.04	11
97.06	6
97.08	1
97.1	5
97.12	12
97.14	9
97.16	6
97.18	7
97.2	9
97.22	6
97.24	9
97.26	12
97.28	5
97.3	8
97.32	5
97.34	10
97.36	5
97.38	8
97.4	9
97.42	6
97.44	4
97.46	8
97.48	5
97.5	3
97.52	12
97.54	7
97.56	9
97.58	6
97.6	6
97.62	5
97.64	6
97.66	5
97.68	8
97.7	12
97.72	3
97.74	6
97.76	2
97.78	4
97.8	10
97.82	8
97.84	6
97.86	6
97.88	6
97.9	10
97.92	6
97.94	7
97.96	4
97.98	11
98	8
98.02	4
98.04	5
98.06	12
98.08	9
98.1	7
98.12	4
98.14	5
98.16	7
98.18	10
98.2	5
98.22	7
98.24	5
98.26	6
98.28	6
98.3	6
98.32	3
98.34	8
98.36	8
98.38	3
98.4	3
98.42	5
98.44	7
98.46	8
98.48	9
98.5	7
98.52	5
98.54	6
98.56	6
98.58	4
98.6	6
98.62	10
98.64	9
98.66	10
98.68	3
98.7	8
98.72	7
98.74	7
98.76	10
98.78	8
98.8	2
98.82	5
98.84	5
98.86	3
98.88	5
98.9	4
98.92	8
98.94	8
98.96	5
98.98	9
99	6
99.02	7
99.04	6
99.06	7
99.08	3
99.1	6
99.12	7
99.14	10
99.16	10
99.18	5
99.2	8
99.22	8
99.24	7
99.26	7
99.28	5
99.3	4
99.32	10
99.34	14
99.36	10
99.38	7
99.4	10
99.42	14
99.44	7
99.46	10
99.48	10
99.5	12
99.52	6
99.54	17
99.56	13
99.58	10
99.6	6
99.62	17
99.64	17
99.66	9
99.68	15
99.7	11
99.72	13
99.74	27
99.76	13
99.78	15
99.8	17
99.82	17
99.84	20
99.86	18
99.88	10
99.9	30
99.92	24
99.94	25
99.96	27
99.98	21
100	15
100.02	19
100.04	20
100.06	21
100.08	21
100.1	14
100.12	17
100.14	19
100.16	18
100.18	13
100.2	16
100.22	15
100.24	16
100.26	16
100.28	10
100.3	18
100.32	13
100.34	11
100.36	19
100.38	17
100.4	11
100.42	12
100.44	7
100.46	12
100.48	13
100.5	10
100.52	13
100.54	11
100.56	9
100.58	7
100.6	4
100.62	8
100.64	7
100.66	5
100.68	5
100.7	4
100.72	10
100.74	13
100.76	6
100.78	7
100.8	10
100.82	8
100.84	8
100.86	7
100.88	9
100.9	9
100.92	6
100.94	9
100.96	5
100.98	11
101	5
101.02	10
101.04	6
101.06	8
101.08	8
101.1	7
101.12	10
101.14	5
101.16	4
101.18	6
101.2	6
101.22	5
101.24	5
101.26	10
101.28	3
101.3	7
101.32	3
101.34	7
101.36	9
101.38	11
101.4	6
101.42	6
101.44	12
101.46	5
101.48	5
101.5	7
101.52	4
101.54	9
101.56	5
101.58	11
101.6	5
101.62	9
101.64	11
101.66	12
101.68	5
101.7	3
101.72	9
101.74	10
101.76	9
101.78	5
101.8	11
101.82	6
101.84	9
101.86	7
101.88	5
101.9	10
101.92	6
101.94	8
101.96	10
101.98	12
102	6
102.02	6
102.04	9
102.06	3
102.08	7
102.1	6
102.12	4
102.14	4
102.16	6
102.18	7
102.2	9
102.22	6
102.24	6
102.26	9
102.28	4
102.3	2
102.32	7
102.34	13
102.36	3
102.38	6
102.4	7
102.42	5
102.44	10
102.46	7
102.48	12
102.5	7
102.52	8
102.54	3
102.56	8
102.58	8
102.6	3
102.62	8
102.64	8
102.66	3
102.68	8
102.7	9
102.72	5
102.74	8
102.76	8
102.78	5
102.8	5
102.82	10
102.84	7
102.86	11
102.88	8
102.9	8
102.92	8
102.94	4
102.96	7
102.98	7
103	8
103.02	4
103.04	9
103.06	6
103.08	6
103.1	5
103.12	10
103.14	9
103.16	7
103.18	9
103.2	5
103.22	11
103.24	4
103.26	9
103.28	9
103.3	6
103.32	11
103.34	9
103.36	6
103.38	8
103.4	10
103.42	7
103.44	8
103.46	11
103.48	6
103.5	15
103.52	5
103.54	8
103.56	14
103.58	9
103.6	1
103.62	9
103.64	6
103.66	6
103.68	6
103.7	11
103.72	13
103.74	9
103.76	5
103.78	5
103.8	4
103.82	8
103.84	9
103.86	10
103.88	10
103.9	10
103.92	10
103.94	11
103.96	11
103.98	5
104	12
104.02	10
104.04	7
104.06	10
104.08	7
104.1	13
104.12	9
104.14	6
104.16	14
104.18	8
104.2	8
104.22	7
104.24	7
104.26	8
104.28	10
104.3	13
104.32	5
104.34	7
104.36	13
104.38	15
104.4	11
104.42	6
104.44	7
104.46	9
104.48	8
104.5	13
104.52	14
104.54	16
104.56	13
104.58	14
104.6	17
104.62	20
104.64	11
104.66	14
104.68	10
104.7	15
104.72	17
104.74	18
104.76	18
104.78	18
104.8	21
104.82	22
104.84	27
104.86	24
104.88	24
104.9	21
104.92	27
104.94	37
104.96	36
104.98	32
105	31
105.02	26
105.04	29
105.06	29
105.08	25
105.1	26
105.12	22
105.14	23
105.16	22
105.18	27
105.2	27
105.22	21
105.24	24
105.26	23
105.28	19
105.3	16
105.32	22
105.34	28
105.36	21
105.38	15
105.4	18
105.42	21
105.44	16
105.46	17
105.48	13
105.5	13
105.52	17
105.54	10
105.56	10
105.58	8
105.6	12
105.62	7
105.64	7
105.66	9
105.68	8
105.7	20
105.72	7
105.74	8
105.76	10
105.78	9
105.8	6
105.82	10
105.84	11
105.86	10
105.88	8
105.9	10
105.92	4
105.94	5
105.96	7
105.98	9
106	11
106.02	7
106.04	9
106.06	4
106.08	13
106.1	7
106.12	7
106.14	10
106.16	12
106.18	12
106.2	10
106.22	10
106.24	7
106.26	8
106.28	6
106.3	14
106.32	9
106.34	11
106.36	9
106.38	11
106.4	8
106.42	13
106.44	13
106.46	7
106.48	6
106.5	8
106.52	9
106.54	8
106.56	12
106.58	5
106.6	10
106.62	10
106.64	7
106.66	3
106.68	8
106.7	5
106.72	7
106.74	9
106.76	10
106.78	5
106.8	8
106.82	10
106.84	7
106.86	13
106.88	10
106.9	8
106.92	11
106.94	7
106.96	16
106.98	5
107	4
107.02	8
107.04	8
107.06	6
107.08	6
107.1	10
107.12	9
107.14	9
107.16	16
107.18	10
107.2	13
107.22	10
107.24	12
107.26	6
107.28	9
107.3	10
107.32	9
107.34	11
107.36	9
107.38	12
107.4	11
107.42	10
107.44	11
107.46	16
107.48	7
107.5	7
107.52	12
107.54	7
107.56	6
107.58	4
107.6	7
107.62	10
107.64	6
107.66	19
107.68	9
107.7	17
107.72	7
107.74	11
107.76	9
107.78	7
107.8	16
107.82	11
107.84	10
107.86	8
107.88	7
107.9	11
107.92	14
107.94	15
107.96	9
107.98	15
108	12
108.02	10
108.04	7
108.06	8
108.08	10
108.1	9
108.12	11
108.14	9
108.16	6
108.18	8
108.2	8
108.22	10
108.24	7
108.26	7
108.28	8
108.3	6
108.32	11
108.34	9
108.36	12
108.38	9
108.4	11
108.42	15
108.44	7
108.46	15
108.48	8
108.5	6
108.52	7
108.54	9
108.56	11
108.58	13
108.6	14
108.62	11
108.64	16
108.66	7
108.68	12
108.7	12
108.72	15
108.74	11
108.76	9
108.78	9
108.8	9
108.82	16
108.84	13
108.86	19
108.88	16
108.9	11
108.92	9
108.94	9
108.96	7
108.98	13
109	14
109.02	8
109.04	16
109.06	11
109.08	11
109.1	13
109.12	16
109.14	9
109.16	7
109.18	14
109.2	17
109.22	11
109.24	11
109.26	9
109.28	11
109.3	9
109.32	4
109.34	7
109.36	5
109.38	18
109.4	7
109.42	13
109.44	11
109.46	9
109.48	11
109.5	14
109.52	10
109.54	12
109.56	9
109.58	13
109.6	15
109.62	8
109.64	10
109.66	8
109.68	8
109.7	12
109.72	12
109.74	8
109.76	10
109.78	11
109.8	7
109.82	10
109.84	6
109.86	9
109.88	10
109.9	5
109.92	18
109.94	13
109.96	4
109.98	4
110	10
110.02	17
110.04	4
110.06	8
110.08	10
110.1	8
110.12	9
110.14	12
110.16	8
110.18	13
110.2	11
110.22	12
110.24	8
110.26	7
110.28	10
110.3	9
110.32	12
110.34	9
110.36	10
110.38	8
110.4	7
110.42	12
110.44	11
110.46	6
110.48	12
110.5	5
110.52	6
110.54	9
110.56	10
110.58	9
110.6	12
110.62	7
110.64	5
110.66	8
110.68	9
110.7	13
110.72	10
110.74	9
110.76	10
110.78	11
110.8	11
110.82	6
110.84	14
110.86	6
110.88	19
110.9	3
110.92	14
110.94	10
110.96	5
110.98	10
111	5
111.02	10
111.04	6
111.06	14
111.08	9
111.1	9
111.12	7
111.14	7
111.16	9
111.18	5
111.2	5
111.22	7
111.24	6
111.26	4
111.28	6
111.3	14
111.32	14
111.34	9
111.36	7
111.38	11
111.4	11
111.42	4
111.44	15
111.46	12
111.48	11
111.5	9
111.52	7
111.54	11
111.56	8
111.58	15
111.6	10
111.62	8
111.64	6
111.66	7
111.68	5
111.7	12
111.72	6
111.74	12
111.76	6
111.78	15
111.8	11
111.82	9
111.84	8
111.86	2
111.88	6
111.9	7
111.92	14
111.94	11
111.96	8
111.98	10
112	14
112.02	8
112.04	4
112.06	15
112.08	11
112.1	9
112.12	8
112.14	8
112.16	11
112.18	11
112.2	5
112.22	10
112.24	6
112.26	5
112.28	4
112.3	4
112.32	11
112.34	12
112.36	6
112.38	12
112.4	10
112.42	5
112.44	8
112.46	8
112.48	13
112.5	10
112.52	8
112.54	3
112.56	6
112.58	10
112.6	20
112.62	11
112.64	8
112.66	10
112.68	6
112.7	10
112.72	15
112.74	9
112.76	4
112.78	10
112.8	12
112.82	5
112.84	14
112.86	12
112.88	5
112.9	10
112.92	7
112.94	9
112.96	7
112.98	17
113	11
113.02	12
113.04	15
113.06	9
113.08	9
113.1	10
113.12	9
113.14	8
113.16	12
113.18	8
113.2	5
113.22	11
113.24	8
113.26	9
113.28	12
113.3	7
113.32	15
113.34	8
113.36	6
113.38	8
113.4	8
113.42	5
113.44	5
113.46	6
113.48	13
113.5	7
113.52	9
113.54	7
113.56	10
113.58	9
113.6	12
113.62	9
113.64	5
113.66	6
113.68	13
113.7	6
113.72	11
113.74	8
113.76	8
113.78	14
113.8	5
113.82	10
113.84	8
113.86	13
113.88	7
113.9	13
113.92	6
113.94	15
113.96	13
113.98	12
114	9
114.02	7
114.04	11
114.06	5
114.08	10
114.1	9
114.12	6
114.14	11
114.16	10
114.18	14
114.2	9
114.22	9
114.24	11
114.26	9
114.28	8
114.3	10
114.32	5
114.34	10
114.36	8
114.38	6
114.4	18
114.42	4
114.44	10
114.46	12
114.48	10
114.5	5
114.52	7
114.54	11
114.56	11
114.58	12
114.6	7
114.62	7
114.64	8
114.66	6
114.68	12
114.7	3
114.72	4
114.74	6
114.76	10
114.78	13
114.8	10
114.82	11
114.84	4
114.86	11
114.88	6
114.9	11
114.92	10
114.94	12
114.96	10
114.98	19
115	6
115.02	7
115.04	7
115.06	8
115.08	10
115.1	9
115.12	10
115.14	9
115.16	4
115.18	8
115.2	9
115.22	7
115.24	12
115.26	5
115.28	9
115.3	6
115.32	14
115.34	12
115.36	8
115.38	7
115.4	11
115.42	10
115.44	10
115.46	6
115.48	6
115.5	13
115.52	16
115.54	5
115.56	7
115.58	5
115.6	12
115.62	11
115.64	10
115.66	9
115.68	3
115.7	9
115.72	8
115.74	14
115.76	6
115.78	3
115.8	7
115.82	4
115.84	8
115.86	6
115.88	6
115.9	7
115.92	11
115.94	6
115.96	8
115.98	8
116	9
116.02	10
116.04	6
116.06	5
116.08	3
116.1	11
116.12	11
116.14	7
116.16	12
116.18	4
116.2	16
116.22	11
116.24	9
116.26	11
116.28	9
116.3	14
116.32	8
116.34	10
116.36	13
116.38	2
116.4	9
116.42	7
116.44	6
116.46	7
116.48	9
116.5	6
116.52	10
116.54	4
116.56	11
116.58	4
116.6	3
116.62	7
116.64	9
116.66	14
116.68	4
116.7	9
116.72	8
116.74	8
116.76	6
116.78	6
116.8	9
116.82	8
116.84	20
116.86	8
116.88	6
116.9	10
116.92	10
116.94	11
116.96	5
116.98	6
117	11
117.02	12
117.04	4
117.06	9
117.08	12
117.1	7
117.12	14
117.14	5
117.16	3
117.18	16
117.2	3
117.22	5
117.24	7
117.26	5
117.28	4
117.3	7
117.32	7
117.34	6
117.36	7
117.38	5
117.4	10
117.42	1
117.44	9
117.46	5
117.48	4
117.5	10
117.52	10
117.54	5
117.56	5
117.58	7
117.6	11
117.62	8
117.64	10
117.66	8
117.68	6
117.7	5
117.72	10
117.74	3
117.76	2
117.78	14
117.8	7
117.82	6
117.84	9
117.86	5
117.88	10
117.9	12
117.92	13
117.94	9
117.96	8
117.98	8
118	8
118.02	10
118.04	7
118.06	5
118.08	6
118.1	8
118.12	4
118.14	6
118.16	11
118.18	6
118.2	7
118.22	8
118.24	7
118.26	6
118.28	10
118.3	11
118.32	9
118.34	6
118.36	11
118.38	8
118.4	2
118.42	12
118.44	8
118.46	7
118.48	9
118.5	9
118.52	5
118.54	5
118.56	12
118.58	10
118.6	6
118.62	16
118.64	7
118.66	7
118.68	8
118.7	7
118.72	12
118.74	18
118.76	10
118.78	18
118.8	7
118.82	10
118.84	8
118.86	9
118.88	7
118.9	7
118.92	16
118.94	7
118.96	7
118.98	7
119	15
119.02	5
119.04	4
119.06	16
119.08	4
119.1	15
119.12	14
119.14	8
119.16	9
119.18	7
119.2	11
119.22	3
119.24	4
119.26	4
119.28	11
119.3	10
119.32	4
119.34	12
119.36	9
119.38	7
119.4	8
119.42	14
119.44	12
119.46	2
119.48	6
119.5	4
119.52	5
119.54	8
119.56	6
119.58	11
119.6	8
119.62	12
119.64	7
119.66	11
119.68	9
119.7	2
119.72	11
119.74	5
119.76	7
119.78	5
119.8	2
119.82	4
119.84	13
119.86	9
119.88	24
119.9	4
119.92	7
119.94	4
119.96	10
119.98	8
120	5
