Sample	
Comments	
Filename	C:\DOCUME~1\Alunos\Desktop\F740B_1S2022_Grupo1\amostra10_30-120_002_17_26-04-22_22-57.raw
Goniometer	Miniflex goniometer
Attachment	Standard sample holder
Monochromater	None
ScanningMode	2Theta/Theta
ScanningType	Continuos Scanning
X-Ray	30kV/15mA
Divergence slit	Unknown
Scattering slit	4.2deg.
Receiving slit	0.3mm
Kb filter	
Start	30
Stop	120
Step	0.02
30	5
30.02	10
30.04	8
30.06	8
30.08	11
30.1	7
30.12	9
30.14	15
30.16	1
30.18	11
30.2	9
30.22	9
30.24	8
30.26	10
30.28	11
30.3	11
30.32	9
30.34	3
30.36	18
30.38	9
30.4	7
30.42	14
30.44	8
30.46	13
30.48	11
30.5	7
30.52	13
30.54	16
30.56	5
30.58	9
30.6	5
30.62	7
30.64	12
30.66	12
30.68	14
30.7	13
30.72	15
30.74	10
30.76	10
30.78	11
30.8	12
30.82	16
30.84	20
30.86	22
30.88	19
30.9	16
30.92	19
30.94	13
30.96	15
30.98	16
31	15
31.02	17
31.04	16
31.06	22
31.08	18
31.1	18
31.12	12
31.14	9
31.16	12
31.18	8
31.2	12
31.22	14
31.24	10
31.26	10
31.28	4
31.3	17
31.32	11
31.34	9
31.36	11
31.38	17
31.4	6
31.42	10
31.44	11
31.46	8
31.48	6
31.5	6
31.52	4
31.54	10
31.56	8
31.58	14
31.6	4
31.62	9
31.64	9
31.66	7
31.68	6
31.7	11
31.72	13
31.74	7
31.76	11
31.78	10
31.8	9
31.82	8
31.84	14
31.86	6
31.88	5
31.9	12
31.92	7
31.94	15
31.96	13
31.98	15
32	18
32.02	19
32.04	14
32.06	19
32.08	13
32.1	20
32.12	25
32.14	13
32.16	30
32.18	26
32.2	29
32.22	26
32.24	35
32.26	40
32.28	44
32.3	36
32.32	40
32.34	46
32.36	32
32.38	37
32.4	24
32.42	41
32.44	23
32.46	29
32.48	20
32.5	26
32.52	19
32.54	15
32.56	11
32.58	16
32.6	8
32.62	9
32.64	10
32.66	7
32.68	10
32.7	11
32.72	7
32.74	13
32.76	7
32.78	10
32.8	16
32.82	19
32.84	7
32.86	8
32.88	11
32.9	9
32.92	5
32.94	3
32.96	12
32.98	6
33	6
33.02	7
33.04	9
33.06	12
33.08	8
33.1	6
33.12	5
33.14	9
33.16	9
33.18	9
33.2	8
33.22	13
33.24	5
33.26	4
33.28	8
33.3	6
33.32	8
33.34	12
33.36	7
33.38	11
33.4	10
33.42	16
33.44	9
33.46	8
33.48	6
33.5	3
33.52	5
33.54	12
33.56	10
33.58	11
33.6	12
33.62	8
33.64	7
33.66	13
33.68	12
33.7	9
33.72	11
33.74	8
33.76	8
33.78	9
33.8	10
33.82	9
33.84	11
33.86	7
33.88	7
33.9	11
33.92	4
33.94	10
33.96	8
33.98	14
34	10
34.02	7
34.04	5
34.06	5
34.08	7
34.1	12
34.12	9
34.14	13
34.16	8
34.18	6
34.2	7
34.22	13
34.24	10
34.26	14
34.28	13
34.3	13
34.32	11
34.34	6
34.36	10
34.38	12
34.4	3
34.42	11
34.44	4
34.46	4
34.48	9
34.5	5
34.52	6
34.54	9
34.56	10
34.58	7
34.6	10
34.62	14
34.64	4
34.66	8
34.68	9
34.7	5
34.72	8
34.74	10
34.76	10
34.78	8
34.8	11
34.82	11
34.84	5
34.86	12
34.88	7
34.9	8
34.92	9
34.94	6
34.96	9
34.98	10
35	7
35.02	14
35.04	5
35.06	11
35.08	9
35.1	4
35.12	8
35.14	14
35.16	10
35.18	8
35.2	11
35.22	9
35.24	6
35.26	4
35.28	5
35.3	4
35.32	11
35.34	12
35.36	7
35.38	4
35.4	12
35.42	7
35.44	6
35.46	6
35.48	12
35.5	3
35.52	7
35.54	5
35.56	6
35.58	7
35.6	13
35.62	10
35.64	5
35.66	8
35.68	6
35.7	5
35.72	4
35.74	5
35.76	8
35.78	7
35.8	9
35.82	11
35.84	7
35.86	5
35.88	12
35.9	6
35.92	4
35.94	11
35.96	3
35.98	7
36	12
36.02	6
36.04	7
36.06	11
36.08	10
36.1	11
36.12	13
36.14	9
36.16	8
36.18	11
36.2	12
36.22	10
36.24	10
36.26	12
36.28	10
36.3	9
36.32	7
36.34	9
36.36	8
36.38	9
36.4	10
36.42	4
36.44	6
36.46	10
36.48	5
36.5	8
36.52	9
36.54	7
36.56	2
36.58	8
36.6	9
36.62	9
36.64	6
36.66	7
36.68	11
36.7	5
36.72	6
36.74	11
36.76	9
36.78	9
36.8	5
36.82	10
36.84	4
36.86	12
36.88	9
36.9	6
36.92	12
36.94	11
36.96	6
36.98	6
37	16
37.02	6
37.04	7
37.06	3
37.08	10
37.1	5
37.12	5
37.14	10
37.16	7
37.18	11
37.2	10
37.22	9
37.24	9
37.26	12
37.28	8
37.3	15
37.32	7
37.34	6
37.36	11
37.38	4
37.4	10
37.42	7
37.44	3
37.46	9
37.48	8
37.5	6
37.52	11
37.54	4
37.56	12
37.58	7
37.6	8
37.62	6
37.64	10
37.66	7
37.68	8
37.7	8
37.72	6
37.74	9
37.76	6
37.78	8
37.8	8
37.82	8
37.84	2
37.86	4
37.88	8
37.9	7
37.92	8
37.94	6
37.96	8
37.98	13
38	7
38.02	5
38.04	9
38.06	11
38.08	8
38.1	8
38.12	9
38.14	5
38.16	8
38.18	7
38.2	10
38.22	11
38.24	6
38.26	7
38.28	9
38.3	11
38.32	11
38.34	7
38.36	9
38.38	12
38.4	6
38.42	7
38.44	5
38.46	6
38.48	10
38.5	5
38.52	9
38.54	6
38.56	5
38.58	10
38.6	6
38.62	8
38.64	2
38.66	7
38.68	12
38.7	5
38.72	2
38.74	4
38.76	4
38.78	8
38.8	6
38.82	7
38.84	4
38.86	8
38.88	8
38.9	6
38.92	4
38.94	6
38.96	7
38.98	14
39	8
39.02	11
39.04	8
39.06	5
39.08	2
39.1	7
39.12	11
39.14	7
39.16	10
39.18	9
39.2	6
39.22	4
39.24	7
39.26	5
39.28	6
39.3	10
39.32	10
39.34	4
39.36	5
39.38	5
39.4	4
39.42	6
39.44	6
39.46	8
39.48	12
39.5	6
39.52	7
39.54	5
39.56	4
39.58	7
39.6	9
39.62	5
39.64	9
39.66	8
39.68	8
39.7	7
39.72	8
39.74	7
39.76	7
39.78	5
39.8	9
39.82	4
39.84	5
39.86	5
39.88	6
39.9	7
39.92	11
39.94	9
39.96	9
39.98	8
40	8
40.02	2
40.04	4
40.06	3
40.08	8
40.1	4
40.12	11
40.14	6
40.16	12
40.18	5
40.2	5
40.22	9
40.24	4
40.26	8
40.28	4
40.3	5
40.32	8
40.34	2
40.36	7
40.38	5
40.4	3
40.42	6
40.44	4
40.46	2
40.48	8
40.5	9
40.52	4
40.54	5
40.56	4
40.58	9
40.6	9
40.62	9
40.64	9
40.66	9
40.68	7
40.7	13
40.72	9
40.74	9
40.76	11
40.78	7
40.8	10
40.82	8
40.84	8
40.86	6
40.88	4
40.9	7
40.92	9
40.94	5
40.96	3
40.98	3
41	4
41.02	4
41.04	4
41.06	5
41.08	6
41.1	2
41.12	7
41.14	9
41.16	11
41.18	12
41.2	2
41.22	9
41.24	7
41.26	8
41.28	12
41.3	5
41.32	10
41.34	4
41.36	8
41.38	8
41.4	7
41.42	2
41.44	9
41.46	7
41.48	7
41.5	6
41.52	4
41.54	11
41.56	5
41.58	7
41.6	4
41.62	4
41.64	4
41.66	0
41.68	6
41.7	2
41.72	9
41.74	2
41.76	9
41.78	6
41.8	4
41.82	11
41.84	6
41.86	7
41.88	2
41.9	0
41.92	6
41.94	9
41.96	10
41.98	6
42	11
42.02	12
42.04	4
42.06	7
42.08	5
42.1	5
42.12	7
42.14	6
42.16	6
42.18	8
42.2	10
42.22	0
42.24	10
42.26	14
42.28	12
42.3	3
42.32	5
42.34	5
42.36	7
42.38	9
42.4	11
42.42	10
42.44	7
42.46	11
42.48	7
42.5	3
42.52	6
42.54	9
42.56	8
42.58	6
42.6	8
42.62	7
42.64	2
42.66	13
42.68	6
42.7	10
42.72	4
42.74	6
42.76	4
42.78	5
42.8	3
42.82	6
42.84	8
42.86	3
42.88	6
42.9	7
42.92	6
42.94	5
42.96	3
42.98	6
43	5
43.02	6
43.04	5
43.06	11
43.08	7
43.1	7
43.12	3
43.14	5
43.16	7
43.18	6
43.2	4
43.22	3
43.24	3
43.26	3
43.28	3
43.3	6
43.32	7
43.34	1
43.36	6
43.38	7
43.4	6
43.42	6
43.44	10
43.46	6
43.48	5
43.5	12
43.52	4
43.54	8
43.56	6
43.58	9
43.6	8
43.62	9
43.64	8
43.66	3
43.68	10
43.7	7
43.72	6
43.74	4
43.76	5
43.78	11
43.8	8
43.82	5
43.84	6
43.86	7
43.88	5
43.9	6
43.92	11
43.94	8
43.96	6
43.98	7
44	12
44.02	10
44.04	6
44.06	17
44.08	9
44.1	10
44.12	15
44.14	10
44.16	11
44.18	10
44.2	14
44.22	16
44.24	20
44.26	12
44.28	15
44.3	12
44.32	10
44.34	8
44.36	10
44.38	17
44.4	9
44.42	9
44.44	10
44.46	10
44.48	10
44.5	10
44.52	6
44.54	4
44.56	8
44.58	4
44.6	8
44.62	9
44.64	6
44.66	7
44.68	7
44.7	9
44.72	5
44.74	10
44.76	11
44.78	14
44.8	9
44.82	9
44.84	8
44.86	13
44.88	12
44.9	12
44.92	16
44.94	15
44.96	14
44.98	18
45	24
45.02	31
45.04	30
45.06	29
45.08	31
45.1	36
45.12	52
45.14	40
45.16	60
45.18	60
45.2	80
45.22	95
45.24	88
45.26	83
45.28	99
45.3	93
45.32	81
45.34	67
45.36	54
45.38	44
45.4	32
45.42	24
45.44	28
45.46	20
45.48	14
45.5	10
45.52	10
45.54	5
45.56	5
45.58	10
45.6	10
45.62	14
45.64	6
45.66	4
45.68	6
45.7	8
45.72	7
45.74	6
45.76	8
45.78	6
45.8	6
45.82	6
45.84	9
45.86	4
45.88	5
45.9	6
45.92	1
45.94	6
45.96	7
45.98	12
46	5
46.02	6
46.04	5
46.06	8
46.08	8
46.1	8
46.12	7
46.14	6
46.16	8
46.18	7
46.2	9
46.22	4
46.24	8
46.26	4
46.28	6
46.3	10
46.32	0
46.34	10
46.36	5
46.38	7
46.4	6
46.42	7
46.44	6
46.46	7
46.48	4
46.5	5
46.52	11
46.54	3
46.56	6
46.58	4
46.6	2
46.62	10
46.64	5
46.66	3
46.68	6
46.7	8
46.72	9
46.74	8
46.76	8
46.78	10
46.8	6
46.82	4
46.84	6
46.86	7
46.88	8
46.9	6
46.92	8
46.94	10
46.96	6
46.98	9
47	4
47.02	2
47.04	6
47.06	4
47.08	3
47.1	13
47.12	6
47.14	3
47.16	5
47.18	8
47.2	7
47.22	9
47.24	7
47.26	6
47.28	3
47.3	14
47.32	9
47.34	6
47.36	6
47.38	6
47.4	8
47.42	6
47.44	6
47.46	4
47.48	6
47.5	5
47.52	9
47.54	11
47.56	4
47.58	10
47.6	3
47.62	4
47.64	3
47.66	7
47.68	5
47.7	6
47.72	9
47.74	6
47.76	4
47.78	2
47.8	6
47.82	7
47.84	4
47.86	11
47.88	4
47.9	7
47.92	9
47.94	4
47.96	7
47.98	7
48	2
48.02	7
48.04	6
48.06	5
48.08	9
48.1	7
48.12	4
48.14	3
48.16	11
48.18	7
48.2	4
48.22	8
48.24	7
48.26	2
48.28	8
48.3	5
48.32	3
48.34	2
48.36	6
48.38	8
48.4	3
48.42	4
48.44	9
48.46	3
48.48	2
48.5	5
48.52	6
48.54	6
48.56	6
48.58	8
48.6	7
48.62	1
48.64	7
48.66	6
48.68	10
48.7	5
48.72	8
48.74	4
48.76	5
48.78	3
48.8	3
48.82	6
48.84	2
48.86	7
48.88	7
48.9	9
48.92	6
48.94	5
48.96	3
48.98	5
49	6
49.02	3
49.04	8
49.06	8
49.08	4
49.1	5
49.12	6
49.14	4
49.16	2
49.18	5
49.2	5
49.22	6
49.24	7
49.26	10
49.28	10
49.3	5
49.32	7
49.34	8
49.36	5
49.38	6
49.4	5
49.42	7
49.44	6
49.46	3
49.48	7
49.5	4
49.52	5
49.54	9
49.56	5
49.58	6
49.6	4
49.62	5
49.64	7
49.66	8
49.68	5
49.7	7
49.72	8
49.74	6
49.76	8
49.78	3
49.8	2
49.82	6
49.84	6
49.86	3
49.88	2
49.9	2
49.92	5
49.94	9
49.96	5
49.98	7
50	4
50.02	4
50.04	2
50.06	4
50.08	2
50.1	9
50.12	4
50.14	6
50.16	3
50.18	4
50.2	9
50.22	5
50.24	2
50.26	4
50.28	4
50.3	4
50.32	4
50.34	5
50.36	7
50.38	9
50.4	6
50.42	4
50.44	4
50.46	5
50.48	6
50.5	8
50.52	5
50.54	7
50.56	0
50.58	6
50.6	9
50.62	6
50.64	4
50.66	6
50.68	6
50.7	6
50.72	4
50.74	6
50.76	3
50.78	4
50.8	1
50.82	3
50.84	2
50.86	3
50.88	7
50.9	2
50.92	8
50.94	2
50.96	6
50.98	7
51	3
51.02	7
51.04	9
51.06	3
51.08	4
51.1	5
51.12	6
51.14	6
51.16	4
51.18	3
51.2	6
51.22	2
51.24	4
51.26	4
51.28	4
51.3	2
51.32	7
51.34	10
51.36	5
51.38	2
51.4	8
51.42	10
51.44	7
51.46	5
51.48	7
51.5	3
51.52	7
51.54	2
51.56	2
51.58	4
51.6	9
51.62	4
51.64	5
51.66	6
51.68	5
51.7	6
51.72	5
51.74	7
51.76	1
51.78	6
51.8	4
51.82	9
51.84	7
51.86	5
51.88	4
51.9	8
51.92	9
51.94	5
51.96	1
51.98	13
52	6
52.02	4
52.04	6
52.06	8
52.08	7
52.1	8
52.12	10
52.14	10
52.16	1
52.18	3
52.2	3
52.22	7
52.24	7
52.26	5
52.28	7
52.3	3
52.32	5
52.34	6
52.36	5
52.38	5
52.4	7
52.42	8
52.44	4
52.46	5
52.48	5
52.5	4
52.52	5
52.54	8
52.56	8
52.58	7
52.6	4
52.62	6
52.64	6
52.66	5
52.68	7
52.7	3
52.72	7
52.74	4
52.76	10
52.78	8
52.8	9
52.82	3
52.84	1
52.86	6
52.88	10
52.9	8
52.92	4
52.94	4
52.96	3
52.98	4
53	6
53.02	3
53.04	3
53.06	9
53.08	2
53.1	8
53.12	4
53.14	4
53.16	8
53.18	3
53.2	5
53.22	4
53.24	1
53.26	6
53.28	4
53.3	9
53.32	3
53.34	7
53.36	4
53.38	1
53.4	2
53.42	3
53.44	3
53.46	6
53.48	6
53.5	4
53.52	2
53.54	3
53.56	3
53.58	5
53.6	12
53.62	4
53.64	6
53.66	3
53.68	6
53.7	3
53.72	0
53.74	7
53.76	0
53.78	7
53.8	7
53.82	3
53.84	5
53.86	6
53.88	3
53.9	7
53.92	4
53.94	6
53.96	3
53.98	3
54	5
54.02	4
54.04	4
54.06	3
54.08	7
54.1	10
54.12	7
54.14	3
54.16	5
54.18	5
54.2	5
54.22	4
54.24	4
54.26	3
54.28	9
54.3	10
54.32	3
54.34	6
54.36	6
54.38	7
54.4	7
54.42	9
54.44	6
54.46	10
54.48	3
54.5	4
54.52	10
54.54	6
54.56	4
54.58	7
54.6	7
54.62	3
54.64	7
54.66	9
54.68	6
54.7	4
54.72	6
54.74	2
54.76	3
54.78	5
54.8	6
54.82	10
54.84	5
54.86	6
54.88	2
54.9	6
54.92	7
54.94	4
54.96	4
54.98	5
55	4
55.02	5
55.04	4
55.06	7
55.08	3
55.1	5
55.12	6
55.14	3
55.16	5
55.18	9
55.2	4
55.22	4
55.24	6
55.26	8
55.28	5
55.3	9
55.32	5
55.34	7
55.36	9
55.38	8
55.4	12
55.42	9
55.44	7
55.46	12
55.48	10
55.5	6
55.52	6
55.54	6
55.56	10
55.58	7
55.6	5
55.62	10
55.64	11
55.66	5
55.68	18
55.7	2
55.72	8
55.74	11
55.76	10
55.78	10
55.8	12
55.82	9
55.84	6
55.86	7
55.88	6
55.9	7
55.92	11
55.94	6
55.96	3
55.98	7
56	1
56.02	6
56.04	10
56.06	0
56.08	4
56.1	7
56.12	7
56.14	2
56.16	5
56.18	4
56.2	7
56.22	6
56.24	4
56.26	8
56.28	5
56.3	6
56.32	3
56.34	7
56.36	7
56.38	5
56.4	7
56.42	1
56.44	9
56.46	3
56.48	9
56.5	1
56.52	6
56.54	7
56.56	7
56.58	5
56.6	5
56.62	5
56.64	5
56.66	1
56.68	5
56.7	5
56.72	4
56.74	2
56.76	7
56.78	7
56.8	1
56.82	3
56.84	4
56.86	3
56.88	1
56.9	9
56.92	5
56.94	6
56.96	6
56.98	6
57	6
57.02	4
57.04	3
57.06	6
57.08	7
57.1	7
57.12	5
57.14	4
57.16	6
57.18	9
57.2	5
57.22	7
57.24	5
57.26	5
57.28	5
57.3	7
57.32	5
57.34	1
57.36	4
57.38	8
57.4	4
57.42	4
57.44	4
57.46	3
57.48	2
57.5	3
57.52	9
57.54	2
57.56	4
57.58	4
57.6	3
57.62	5
57.64	3
57.66	4
57.68	3
57.7	6
57.72	3
57.74	6
57.76	4
57.78	6
57.8	4
57.82	6
57.84	6
57.86	6
57.88	3
57.9	7
57.92	3
57.94	7
57.96	7
57.98	3
58	6
58.02	4
58.04	8
58.06	3
58.08	4
58.1	9
58.12	9
58.14	3
58.16	5
58.18	5
58.2	7
58.22	3
58.24	3
58.26	8
58.28	7
58.3	3
58.32	5
58.34	1
58.36	6
58.38	5
58.4	3
58.42	6
58.44	6
58.46	6
58.48	5
58.5	4
58.52	8
58.54	8
58.56	8
58.58	6
58.6	4
58.62	4
58.64	9
58.66	4
58.68	6
58.7	5
58.72	8
58.74	3
58.76	4
58.78	6
58.8	2
58.82	4
58.84	8
58.86	4
58.88	2
58.9	5
58.92	4
58.94	7
58.96	0
58.98	7
59	2
59.02	3
59.04	3
59.06	6
59.08	4
59.1	4
59.12	4
59.14	5
59.16	4
59.18	3
59.2	5
59.22	8
59.24	8
59.26	5
59.28	6
59.3	1
59.32	7
59.34	8
59.36	2
59.38	6
59.4	5
59.42	8
59.44	2
59.46	7
59.48	2
59.5	5
59.52	3
59.54	3
59.56	4
59.58	4
59.6	6
59.62	7
59.64	6
59.66	6
59.68	7
59.7	6
59.72	4
59.74	5
59.76	10
59.78	7
59.8	3
59.82	8
59.84	6
59.86	8
59.88	10
59.9	10
59.92	5
59.94	4
59.96	4
59.98	8
60	7
60.02	4
60.04	5
60.06	3
60.08	2
60.1	5
60.12	3
60.14	4
60.16	7
60.18	5
60.2	9
60.22	13
60.24	3
60.26	2
60.28	6
60.3	5
60.32	7
60.34	5
60.36	7
60.38	6
60.4	4
60.42	2
60.44	7
60.46	2
60.48	5
60.5	2
60.52	7
60.54	4
60.56	6
60.58	7
60.6	6
60.62	7
60.64	2
60.66	6
60.68	6
60.7	3
60.72	6
60.74	7
60.76	6
60.78	7
60.8	5
60.82	2
60.84	5
60.86	7
60.88	9
60.9	10
60.92	14
60.94	3
60.96	7
60.98	4
61	2
61.02	9
61.04	4
61.06	3
61.08	4
61.1	2
61.12	6
61.14	1
61.16	7
61.18	3
61.2	5
61.22	7
61.24	6
61.26	6
61.28	6
61.3	0
61.32	7
61.34	6
61.36	8
61.38	6
61.4	7
61.42	4
61.44	6
61.46	5
61.48	4
61.5	8
61.52	8
61.54	2
61.56	4
61.58	3
61.6	7
61.62	9
61.64	4
61.66	4
61.68	8
61.7	4
61.72	10
61.74	10
61.76	4
61.78	7
61.8	6
61.82	2
61.84	7
61.86	3
61.88	5
61.9	9
61.92	4
61.94	6
61.96	6
61.98	7
62	6
62.02	5
62.04	7
62.06	4
62.08	11
62.1	8
62.12	6
62.14	6
62.16	5
62.18	3
62.2	4
62.22	4
62.24	5
62.26	5
62.28	5
62.3	5
62.32	7
62.34	4
62.36	10
62.38	3
62.4	9
62.42	4
62.44	9
62.46	7
62.48	11
62.5	12
62.52	8
62.54	15
62.56	12
62.58	8
62.6	8
62.62	8
62.64	13
62.66	12
62.68	14
62.7	12
62.72	12
62.74	15
62.76	11
62.78	16
62.8	12
62.82	21
62.84	17
62.86	17
62.88	19
62.9	25
62.92	18
62.94	22
62.96	22
62.98	27
63	14
63.02	9
63.04	10
63.06	11
63.08	15
63.1	11
63.12	11
63.14	7
63.16	12
63.18	14
63.2	7
63.22	5
63.24	8
63.26	4
63.28	6
63.3	8
63.32	5
63.34	7
63.36	6
63.38	2
63.4	2
63.42	5
63.44	8
63.46	2
63.48	6
63.5	4
63.52	7
63.54	1
63.56	12
63.58	4
63.6	6
63.62	7
63.64	7
63.66	6
63.68	4
63.7	3
63.72	3
63.74	4
63.76	4
63.78	3
63.8	7
63.82	5
63.84	8
63.86	1
63.88	3
63.9	3
63.92	4
63.94	6
63.96	5
63.98	8
64	1
64.02	6
64.04	5
64.06	2
64.08	3
64.1	8
64.12	6
64.14	4
64.16	7
64.18	6
64.2	3
64.22	9
64.24	8
64.26	6
64.28	3
64.3	3
64.32	7
64.34	5
64.36	11
64.38	7
64.4	8
64.42	8
64.44	5
64.46	10
64.48	5
64.5	6
64.52	6
64.54	3
64.56	8
64.58	6
64.6	8
64.62	7
64.64	8
64.66	7
64.68	5
64.7	11
64.72	5
64.74	7
64.76	7
64.78	8
64.8	5
64.82	3
64.84	5
64.86	5
64.88	11
64.9	5
64.92	11
64.94	11
64.96	17
64.98	11
65	9
65.02	11
65.04	15
65.06	8
65.08	4
65.1	11
65.12	13
65.14	13
65.16	6
65.18	7
65.2	6
65.22	8
65.24	6
65.26	6
65.28	6
65.3	5
65.32	4
65.34	2
65.36	5
65.38	7
65.4	4
65.42	5
65.44	7
65.46	6
65.48	7
65.5	5
65.52	5
65.54	8
65.56	3
65.58	5
65.6	6
65.62	1
65.64	2
65.66	7
65.68	4
65.7	3
65.72	9
65.74	4
65.76	2
65.78	5
65.8	4
65.82	8
65.84	3
65.86	9
65.88	8
65.9	5
65.92	7
65.94	6
65.96	3
65.98	3
66	5
66.02	7
66.04	8
66.06	6
66.08	6
66.1	5
66.12	6
66.14	7
66.16	6
66.18	4
66.2	5
66.22	3
66.24	3
66.26	5
66.28	7
66.3	7
66.32	5
66.34	5
66.36	3
66.38	3
66.4	5
66.42	7
66.44	3
66.46	4
66.48	2
66.5	2
66.52	5
66.54	4
66.56	5
66.58	5
66.6	3
66.62	8
66.64	3
66.66	9
66.68	9
66.7	6
66.72	6
66.74	5
66.76	4
66.78	6
66.8	4
66.82	7
66.84	8
66.86	6
66.88	10
66.9	5
66.92	4
66.94	7
66.96	7
66.98	6
67	6
67.02	4
67.04	5
67.06	4
67.08	4
67.1	9
67.12	8
67.14	5
67.16	6
67.18	8
67.2	8
67.22	6
67.24	4
67.26	4
67.28	5
67.3	6
67.32	5
67.34	3
67.36	7
67.38	5
67.4	6
67.42	6
67.44	3
67.46	3
67.48	3
67.5	3
67.52	4
67.54	5
67.56	7
67.58	1
67.6	2
67.62	8
67.64	5
67.66	6
67.68	8
67.7	6
67.72	2
67.74	5
67.76	3
67.78	6
67.8	6
67.82	2
67.84	9
67.86	0
67.88	8
67.9	3
67.92	5
67.94	6
67.96	4
67.98	4
68	3
68.02	5
68.04	5
68.06	5
68.08	4
68.1	5
68.12	4
68.14	7
68.16	5
68.18	3
68.2	4
68.22	4
68.24	6
68.26	4
68.28	2
68.3	6
68.32	4
68.34	4
68.36	7
68.38	3
68.4	11
68.42	4
68.44	2
68.46	3
68.48	6
68.5	3
68.52	3
68.54	8
68.56	9
68.58	5
68.6	8
68.62	5
68.64	4
68.66	7
68.68	0
68.7	3
68.72	6
68.74	4
68.76	5
68.78	4
68.8	5
68.82	4
68.84	4
68.86	3
68.88	3
68.9	3
68.92	3
68.94	6
68.96	3
68.98	4
69	5
69.02	2
69.04	1
69.06	3
69.08	7
69.1	6
69.12	4
69.14	11
69.16	4
69.18	0
69.2	8
69.22	8
69.24	8
69.26	3
69.28	6
69.3	6
69.32	1
69.34	5
69.36	6
69.38	1
69.4	5
69.42	7
69.44	5
69.46	4
69.48	5
69.5	7
69.52	3
69.54	2
69.56	8
69.58	5
69.6	3
69.62	4
69.64	8
69.66	4
69.68	5
69.7	2
69.72	6
69.74	5
69.76	2
69.78	5
69.8	2
69.82	3
69.84	8
69.86	4
69.88	7
69.9	5
69.92	9
69.94	7
69.96	5
69.98	3
70	3
70.02	5
70.04	3
70.06	4
70.08	1
70.1	5
70.12	3
70.14	3
70.16	5
70.18	6
70.2	7
70.22	3
70.24	7
70.26	5
70.28	4
70.3	5
70.32	9
70.34	3
70.36	5
70.38	7
70.4	6
70.42	6
70.44	7
70.46	6
70.48	4
70.5	3
70.52	2
70.54	5
70.56	7
70.58	5
70.6	5
70.62	5
70.64	10
70.66	4
70.68	5
70.7	4
70.72	7
70.74	4
70.76	7
70.78	5
70.8	5
70.82	5
70.84	5
70.86	9
70.88	2
70.9	8
70.92	6
70.94	4
70.96	10
70.98	4
71	3
71.02	6
71.04	2
71.06	6
71.08	4
71.1	5
71.12	3
71.14	0
71.16	4
71.18	6
71.2	4
71.22	1
71.24	7
71.26	2
71.28	4
71.3	7
71.32	4
71.34	3
71.36	5
71.38	4
71.4	4
71.42	3
71.44	7
71.46	5
71.48	9
71.5	6
71.52	7
71.54	7
71.56	6
71.58	6
71.6	6
71.62	4
71.64	6
71.66	7
71.68	7
71.7	7
71.72	3
71.74	4
71.76	4
71.78	7
71.8	3
71.82	5
71.84	10
71.86	7
71.88	5
71.9	9
71.92	1
71.94	8
71.96	5
71.98	7
72	7
72.02	5
72.04	5
72.06	7
72.08	2
72.1	4
72.12	6
72.14	5
72.16	6
72.18	9
72.2	6
72.22	1
72.24	9
72.26	5
72.28	2
72.3	4
72.32	5
72.34	5
72.36	5
72.38	8
72.4	7
72.42	3
72.44	5
72.46	13
72.48	5
72.5	5
72.52	3
72.54	4
72.56	3
72.58	5
72.6	3
72.62	5
72.64	8
72.66	4
72.68	5
72.7	8
72.72	4
72.74	7
72.76	1
72.78	4
72.8	3
72.82	6
72.84	9
72.86	8
72.88	4
72.9	13
72.92	4
72.94	8
72.96	7
72.98	3
73	6
73.02	5
73.04	4
73.06	2
73.08	4
73.1	6
73.12	4
73.14	11
73.16	6
73.18	4
73.2	3
73.22	2
73.24	5
73.26	7
73.28	6
73.3	7
73.32	3
73.34	5
73.36	10
73.38	3
73.4	2
73.42	5
73.44	4
73.46	4
73.48	4
73.5	3
73.52	7
73.54	5
73.56	4
73.58	8
73.6	8
73.62	7
73.64	2
73.66	1
73.68	3
73.7	7
73.72	5
73.74	9
73.76	5
73.78	2
73.8	4
73.82	4
73.84	5
73.86	7
73.88	1
73.9	6
73.92	2
73.94	2
73.96	6
73.98	9
74	6
74.02	7
74.04	3
74.06	0
74.08	4
74.1	5
74.12	5
74.14	2
74.16	4
74.18	5
74.2	3
74.22	4
74.24	4
74.26	4
74.28	3
74.3	5
74.32	5
74.34	2
74.36	5
74.38	6
74.4	5
74.42	7
74.44	5
74.46	5
74.48	5
74.5	6
74.52	4
74.54	2
74.56	2
74.58	5
74.6	5
74.62	6
74.64	2
74.66	7
74.68	8
74.7	5
74.72	6
74.74	3
74.76	4
74.78	2
74.8	5
74.82	5
74.84	6
74.86	3
74.88	4
74.9	4
74.92	3
74.94	4
74.96	5
74.98	6
75	7
75.02	5
75.04	7
75.06	6
75.08	4
75.1	5
75.12	6
75.14	6
75.16	5
75.18	5
75.2	4
75.22	4
75.24	3
75.26	2
75.28	4
75.3	6
75.32	4
75.34	2
75.36	5
75.38	9
75.4	2
75.42	5
75.44	5
75.46	4
75.48	4
75.5	3
75.52	3
75.54	5
75.56	4
75.58	4
75.6	0
75.62	4
75.64	3
75.66	6
75.68	3
75.7	6
75.72	5
75.74	6
75.76	5
75.78	8
75.8	8
75.82	9
75.84	4
75.86	3
75.88	4
75.9	4
75.92	5
75.94	5
75.96	7
75.98	5
76	3
76.02	1
76.04	3
76.06	4
76.08	3
76.1	5
76.12	4
76.14	4
76.16	5
76.18	5
76.2	6
76.22	4
76.24	4
76.26	5
76.28	5
76.3	4
76.32	3
76.34	4
76.36	2
76.38	5
76.4	5
76.42	9
76.44	8
76.46	7
76.48	1
76.5	4
76.52	5
76.54	5
76.56	2
76.58	3
76.6	1
76.62	6
76.64	4
76.66	3
76.68	8
76.7	8
76.72	8
76.74	6
76.76	4
76.78	1
76.8	9
76.82	0
76.84	1
76.86	5
76.88	6
76.9	6
76.92	4
76.94	12
76.96	4
76.98	2
77	7
77.02	5
77.04	2
77.06	3
77.08	6
77.1	3
77.12	9
77.14	4
77.16	3
77.18	4
77.2	7
77.22	6
77.24	3
77.26	2
77.28	1
77.3	5
77.32	5
77.34	4
77.36	3
77.38	6
77.4	7
77.42	5
77.44	3
77.46	6
77.48	5
77.5	4
77.52	2
77.54	6
77.56	3
77.58	3
77.6	3
77.62	9
77.64	3
77.66	1
77.68	6
77.7	6
77.72	2
77.74	2
77.76	3
77.78	6
77.8	2
77.82	1
77.84	5
77.86	5
77.88	4
77.9	4
77.92	5
77.94	12
77.96	3
77.98	3
78	6
78.02	2
78.04	4
78.06	4
78.08	7
78.1	10
78.12	3
78.14	7
78.16	2
78.18	1
78.2	3
78.22	5
78.24	3
78.26	3
78.28	1
78.3	7
78.32	6
78.34	5
78.36	5
78.38	2
78.4	5
78.42	3
78.44	4
78.46	3
78.48	2
78.5	2
78.52	6
78.54	2
78.56	1
78.58	1
78.6	9
78.62	5
78.64	4
78.66	4
78.68	1
78.7	3
78.72	4
78.74	3
78.76	5
78.78	6
78.8	5
78.82	2
78.84	5
78.86	8
78.88	5
78.9	8
78.92	8
78.94	6
78.96	5
78.98	6
79	5
79.02	8
79.04	6
79.06	7
79.08	3
79.1	8
79.12	8
79.14	6
79.16	3
79.18	3
79.2	7
79.22	2
79.24	8
79.26	5
79.28	7
79.3	6
79.32	4
79.34	5
79.36	5
79.38	5
79.4	9
79.42	5
79.44	6
79.46	6
79.48	6
79.5	4
79.52	9
79.54	5
79.56	9
79.58	8
79.6	4
79.62	5
79.64	7
79.66	7
79.68	5
79.7	7
79.72	9
79.74	4
79.76	8
79.78	10
79.8	13
79.82	13
79.84	10
79.86	19
79.88	13
79.9	6
79.92	8
79.94	12
79.96	7
79.98	5
80	6
80.02	7
80.04	8
80.06	7
80.08	7
80.1	10
80.12	3
80.14	3
80.16	3
80.18	5
80.2	4
80.22	13
80.24	7
80.26	5
80.28	6
80.3	8
80.32	5
80.34	3
80.36	4
80.38	12
80.4	6
80.42	4
80.44	5
80.46	6
80.48	1
80.5	6
80.52	12
80.54	8
80.56	10
80.58	9
80.6	3
80.62	4
80.64	6
80.66	3
80.68	10
80.7	1
80.72	7
80.74	1
80.76	5
80.78	11
80.8	6
80.82	5
80.84	6
80.86	5
80.88	6
80.9	9
80.92	8
80.94	2
80.96	3
80.98	3
81	4
81.02	4
81.04	2
81.06	4
81.08	5
81.1	7
81.12	0
81.14	6
81.16	4
81.18	7
81.2	4
81.22	7
81.24	4
81.26	7
81.28	3
81.3	2
81.32	6
81.34	3
81.36	4
81.38	4
81.4	6
81.42	2
81.44	4
81.46	4
81.48	7
81.5	4
81.52	8
81.54	5
81.56	6
81.58	2
81.6	8
81.62	3
81.64	2
81.66	5
81.68	0
81.7	7
81.72	5
81.74	7
81.76	3
81.78	3
81.8	7
81.82	6
81.84	10
81.86	4
81.88	5
81.9	5
81.92	10
81.94	7
81.96	8
81.98	8
82	2
82.02	4
82.04	3
82.06	8
82.08	5
82.1	11
82.12	2
82.14	3
82.16	7
82.18	5
82.2	4
82.22	9
82.24	2
82.26	1
82.28	2
82.3	6
82.32	3
82.34	4
82.36	4
82.38	5
82.4	7
82.42	4
82.44	6
82.46	5
82.48	4
82.5	8
82.52	5
82.54	4
82.56	9
82.58	3
82.6	6
82.62	4
82.64	4
82.66	2
82.68	6
82.7	6
82.72	6
82.74	9
82.76	4
82.78	5
82.8	5
82.82	4
82.84	3
82.86	4
82.88	4
82.9	5
82.92	6
82.94	3
82.96	4
82.98	7
83	3
83.02	7
83.04	5
83.06	3
83.08	4
83.1	5
83.12	6
83.14	4
83.16	1
83.18	3
83.2	3
83.22	3
83.24	7
83.26	5
83.28	8
83.3	8
83.32	3
83.34	6
83.36	3
83.38	5
83.4	0
83.42	2
83.44	6
83.46	6
83.48	5
83.5	2
83.52	6
83.54	3
83.56	3
83.58	3
83.6	6
83.62	6
83.64	4
83.66	2
83.68	5
83.7	4
83.72	1
83.74	6
83.76	3
83.78	1
83.8	2
83.82	1
83.84	4
83.86	7
83.88	5
83.9	5
83.92	2
83.94	2
83.96	2
83.98	6
84	6
84.02	6
84.04	3
84.06	6
84.08	5
84.1	6
84.12	4
84.14	5
84.16	3
84.18	8
84.2	2
84.22	6
84.24	6
84.26	3
84.28	3
84.3	2
84.32	5
84.34	3
84.36	5
84.38	5
84.4	1
84.42	5
84.44	7
84.46	4
84.48	6
84.5	3
84.52	1
84.54	6
84.56	6
84.58	6
84.6	3
84.62	1
84.64	6
84.66	4
84.68	3
84.7	4
84.72	9
84.74	3
84.76	5
84.78	3
84.8	6
84.82	4
84.84	2
84.86	5
84.88	6
84.9	3
84.92	6
84.94	5
84.96	4
84.98	6
85	6
85.02	4
85.04	5
85.06	6
85.08	6
85.1	7
85.12	1
85.14	6
85.16	6
85.18	5
85.2	6
85.22	7
85.24	0
85.26	2
85.28	7
85.3	4
85.32	3
85.34	6
85.36	4
85.38	5
85.4	8
85.42	3
85.44	10
85.46	4
85.48	4
85.5	2
85.52	6
85.54	13
85.56	1
85.58	3
85.6	12
85.62	4
85.64	8
85.66	3
85.68	2
85.7	3
85.72	8
85.74	3
85.76	4
85.78	5
85.8	4
85.82	3
85.84	4
85.86	6
85.88	3
85.9	7
85.92	7
85.94	4
85.96	5
85.98	5
86	5
86.02	5
86.04	7
86.06	4
86.08	3
86.1	4
86.12	2
86.14	1
86.16	4
86.18	4
86.2	6
86.22	6
86.24	6
86.26	1
86.28	3
86.3	5
86.32	4
86.34	1
86.36	8
86.38	5
86.4	5
86.42	4
86.44	5
86.46	4
86.48	2
86.5	6
86.52	4
86.54	3
86.56	5
86.58	7
86.6	3
86.62	4
86.64	4
86.66	4
86.68	5
86.7	4
86.72	6
86.74	3
86.76	2
86.78	7
86.8	4
86.82	6
86.84	5
86.86	2
86.88	3
86.9	7
86.92	3
86.94	2
86.96	4
86.98	2
87	3
87.02	7
87.04	5
87.06	5
87.08	7
87.1	3
87.12	7
87.14	4
87.16	5
87.18	3
87.2	7
87.22	3
87.24	8
87.26	1
87.28	5
87.3	6
87.32	4
87.34	4
87.36	3
87.38	3
87.4	6
87.42	3
87.44	2
87.46	6
87.48	6
87.5	2
87.52	5
87.54	7
87.56	9
87.58	7
87.6	9
87.62	4
87.64	3
87.66	1
87.68	3
87.7	11
87.72	5
87.74	4
87.76	5
87.78	2
87.8	9
87.82	4
87.84	3
87.86	5
87.88	8
87.9	7
87.92	4
87.94	9
87.96	5
87.98	6
88	4
88.02	2
88.04	2
88.06	6
88.08	7
88.1	6
88.12	1
88.14	4
88.16	7
88.18	8
88.2	2
88.22	4
88.24	4
88.26	5
88.28	3
88.3	9
88.32	7
88.34	3
88.36	4
88.38	2
88.4	2
88.42	0
88.44	6
88.46	4
88.48	5
88.5	7
88.52	7
88.54	1
88.56	3
88.58	4
88.6	2
88.62	6
88.64	6
88.66	2
88.68	3
88.7	4
88.72	2
88.74	1
88.76	4
88.78	3
88.8	9
88.82	6
88.84	2
88.86	4
88.88	4
88.9	1
88.92	6
88.94	5
88.96	1
88.98	1
89	7
89.02	7
89.04	8
89.06	2
89.08	6
89.1	7
89.12	3
89.14	8
89.16	4
89.18	3
89.2	5
89.22	4
89.24	8
89.26	1
89.28	3
89.3	6
89.32	0
89.34	4
89.36	3
89.38	4
89.4	4
89.42	5
89.44	3
89.46	7
89.48	7
89.5	3
89.52	4
89.54	6
89.56	4
89.58	5
89.6	8
89.62	6
89.64	6
89.66	7
89.68	8
89.7	10
89.72	7
89.74	7
89.76	9
89.78	13
89.8	9
89.82	4
89.84	4
89.86	5
89.88	11
89.9	6
89.92	9
89.94	4
89.96	7
89.98	5
90	4
90.02	10
90.04	3
90.06	9
90.08	12
90.1	2
90.12	2
90.14	5
90.16	4
90.18	1
90.2	8
90.22	5
90.24	6
90.26	4
90.28	6
90.3	7
90.32	6
90.34	6
90.36	6
90.38	6
90.4	5
90.42	3
90.44	6
90.46	6
90.48	3
90.5	5
90.52	2
90.54	4
90.56	6
90.58	5
90.6	7
90.62	3
90.64	5
90.66	3
90.68	10
90.7	5
90.72	7
90.74	4
90.76	7
90.78	6
90.8	9
90.82	8
90.84	3
90.86	11
90.88	3
90.9	3
90.92	5
90.94	4
90.96	4
90.98	4
91	6
91.02	5
91.04	4
91.06	4
91.08	5
91.1	4
91.12	7
91.14	3
91.16	3
91.18	3
91.2	3
91.22	3
91.24	7
91.26	7
91.28	1
91.3	4
91.32	3
91.34	7
91.36	4
91.38	6
91.4	4
91.42	9
91.44	1
91.46	7
91.48	3
91.5	5
91.52	3
91.54	8
91.56	9
91.58	3
91.6	3
91.62	5
91.64	5
91.66	2
91.68	3
91.7	4
91.72	3
91.74	1
91.76	5
91.78	5
91.8	3
91.82	2
91.84	9
91.86	3
91.88	5
91.9	4
91.92	2
91.94	3
91.96	7
91.98	3
92	4
92.02	4
92.04	3
92.06	5
92.08	11
92.1	7
92.12	5
92.14	12
92.16	4
92.18	5
92.2	8
92.22	5
92.24	3
92.26	3
92.28	5
92.3	6
92.32	4
92.34	7
92.36	6
92.38	7
92.4	5
92.42	1
92.44	6
92.46	9
92.48	3
92.5	5
92.52	5
92.54	2
92.56	6
92.58	4
92.6	5
92.62	3
92.64	7
92.66	4
92.68	4
92.7	8
92.72	4
92.74	5
92.76	9
92.78	3
92.8	6
92.82	7
92.84	8
92.86	8
92.88	1
92.9	4
92.92	2
92.94	1
92.96	7
92.98	5
93	7
93.02	8
93.04	6
93.06	2
93.08	3
93.1	3
93.12	3
93.14	6
93.16	7
93.18	4
93.2	6
93.22	7
93.24	5
93.26	4
93.28	7
93.3	2
93.32	5
93.34	8
93.36	4
93.38	5
93.4	4
93.42	6
93.44	6
93.46	11
93.48	3
93.5	3
93.52	5
93.54	3
93.56	8
93.58	4
93.6	3
93.62	3
93.64	5
93.66	1
93.68	2
93.7	3
93.72	5
93.74	4
93.76	4
93.78	1
93.8	5
93.82	4
93.84	5
93.86	3
93.88	4
93.9	5
93.92	1
93.94	3
93.96	5
93.98	0
94	3
94.02	9
94.04	5
94.06	7
94.08	3
94.1	4
94.12	3
94.14	8
94.16	10
94.18	3
94.2	2
94.22	3
94.24	3
94.26	3
94.28	8
94.3	3
94.32	4
94.34	3
94.36	4
94.38	7
94.4	8
94.42	4
94.44	6
94.46	9
94.48	1
94.5	1
94.52	6
94.54	1
94.56	2
94.58	4
94.6	7
94.62	7
94.64	5
94.66	3
94.68	5
94.7	5
94.72	4
94.74	4
94.76	2
94.78	5
94.8	4
94.82	3
94.84	4
94.86	4
94.88	2
94.9	2
94.92	6
94.94	5
94.96	4
94.98	8
95	3
95.02	4
95.04	5
95.06	5
95.08	3
95.1	3
95.12	3
95.14	10
95.16	7
95.18	2
95.2	3
95.22	3
95.24	5
95.26	6
95.28	6
95.3	7
95.32	6
95.34	5
95.36	3
95.38	4
95.4	5
95.42	9
95.44	5
95.46	5
95.48	5
95.5	10
95.52	5
95.54	11
95.56	5
95.58	7
95.6	6
95.62	11
95.64	9
95.66	4
95.68	8
95.7	8
95.72	6
95.74	7
95.76	5
95.78	4
95.8	6
95.82	12
95.84	9
95.86	8
95.88	7
95.9	8
95.92	6
95.94	7
95.96	7
95.98	8
96	6
96.02	7
96.04	5
96.06	8
96.08	8
96.1	8
96.12	4
96.14	3
96.16	3
96.18	6
96.2	8
96.22	3
96.24	11
96.26	3
96.28	9
96.3	7
96.32	5
96.34	4
96.36	8
96.38	7
96.4	2
96.42	5
96.44	8
96.46	2
96.48	2
96.5	6
96.52	9
96.54	5
96.56	6
96.58	5
96.6	6
96.62	9
96.64	4
96.66	6
96.68	8
96.7	6
96.72	4
96.74	1
96.76	5
96.78	4
96.8	2
96.82	10
96.84	10
96.86	4
96.88	3
96.9	6
96.92	8
96.94	5
96.96	2
96.98	4
97	3
97.02	6
97.04	7
97.06	2
97.08	6
97.1	5
97.12	5
97.14	9
97.16	8
97.18	8
97.2	4
97.22	4
97.24	13
97.26	1
97.28	5
97.3	10
97.32	7
97.34	5
97.36	6
97.38	10
97.4	11
97.42	7
97.44	9
97.46	9
97.48	8
97.5	10
97.52	11
97.54	11
97.56	14
97.58	12
97.6	13
97.62	20
97.64	32
97.66	22
97.68	26
97.7	28
97.72	41
97.74	23
97.76	23
97.78	27
97.8	21
97.82	17
97.84	17
97.86	13
97.88	17
97.9	8
97.92	13
97.94	12
97.96	19
97.98	11
98	20
98.02	11
98.04	19
98.06	18
98.08	15
98.1	21
98.12	10
98.14	6
98.16	11
98.18	12
98.2	8
98.22	4
98.24	6
98.26	10
98.28	4
98.3	6
98.32	6
98.34	9
98.36	4
98.38	2
98.4	3
98.42	4
98.44	3
98.46	9
98.48	5
98.5	6
98.52	6
98.54	10
98.56	4
98.58	3
98.6	2
98.62	6
98.64	5
98.66	4
98.68	6
98.7	9
98.72	9
98.74	5
98.76	4
98.78	6
98.8	6
98.82	7
98.84	6
98.86	7
98.88	7
98.9	6
98.92	4
98.94	7
98.96	7
98.98	5
99	4
99.02	6
99.04	12
99.06	5
99.08	5
99.1	4
99.12	6
99.14	4
99.16	6
99.18	5
99.2	2
99.22	8
99.24	3
99.26	3
99.28	5
99.3	6
99.32	5
99.34	6
99.36	8
99.38	4
99.4	5
99.42	5
99.44	3
99.46	8
99.48	6
99.5	1
99.52	7
99.54	6
99.56	6
99.58	7
99.6	6
99.62	3
99.64	5
99.66	4
99.68	4
99.7	1
99.72	12
99.74	2
99.76	8
99.78	8
99.8	3
99.82	11
99.84	6
99.86	1
99.88	2
99.9	2
99.92	5
99.94	1
99.96	5
99.98	4
100	6
100.02	7
100.04	3
100.06	8
100.08	5
100.1	10
100.12	10
100.14	3
100.16	3
100.18	6
100.2	8
100.22	3
100.24	5
100.26	3
100.28	11
100.3	9
100.32	2
100.34	6
100.36	5
100.38	6
100.4	5
100.42	8
100.44	7
100.46	4
100.48	6
100.5	11
100.52	5
100.54	7
100.56	4
100.58	7
100.6	7
100.62	5
100.64	4
100.66	6
100.68	6
100.7	4
100.72	6
100.74	8
100.76	8
100.78	2
100.8	10
100.82	5
100.84	6
100.86	2
100.88	5
100.9	6
100.92	3
100.94	10
100.96	2
100.98	7
101	5
101.02	7
101.04	9
101.06	6
101.08	4
101.1	2
101.12	7
101.14	4
101.16	7
101.18	6
101.2	4
101.22	4
101.24	6
101.26	2
101.28	6
101.3	2
101.32	3
101.34	4
101.36	7
101.38	6
101.4	5
101.42	4
101.44	4
101.46	3
101.48	4
101.5	3
101.52	7
101.54	6
101.56	7
101.58	2
101.6	4
101.62	5
101.64	8
101.66	6
101.68	5
101.7	6
101.72	6
101.74	11
101.76	2
101.78	9
101.8	7
101.82	3
101.84	1
101.86	4
101.88	2
101.9	2
101.92	0
101.94	5
101.96	6
101.98	5
102	5
102.02	6
102.04	5
102.06	4
102.08	3
102.1	7
102.12	4
102.14	4
102.16	7
102.18	7
102.2	6
102.22	3
102.24	6
102.26	7
102.28	11
102.3	3
102.32	8
102.34	11
102.36	2
102.38	5
102.4	5
102.42	8
102.44	6
102.46	8
102.48	6
102.5	5
102.52	2
102.54	9
102.56	3
102.58	7
102.6	3
102.62	8
102.64	5
102.66	2
102.68	8
102.7	4
102.72	2
102.74	9
102.76	5
102.78	3
102.8	6
102.82	4
102.84	6
102.86	7
102.88	9
102.9	5
102.92	6
102.94	7
102.96	6
102.98	6
103	4
103.02	4
103.04	4
103.06	11
103.08	4
103.1	11
103.12	13
103.14	11
103.16	10
103.18	14
103.2	14
103.22	16
103.24	11
103.26	15
103.28	9
103.3	17
103.32	14
103.34	16
103.36	9
103.38	7
103.4	10
103.42	9
103.44	9
103.46	11
103.48	18
103.5	12
103.52	18
103.54	20
103.56	25
103.58	26
103.6	26
103.62	25
103.64	26
103.66	17
103.68	18
103.7	22
103.72	18
103.74	10
103.76	14
103.78	10
103.8	8
103.82	8
103.84	11
103.86	5
103.88	10
103.9	10
103.92	9
103.94	15
103.96	18
103.98	19
104	15
104.02	7
104.04	6
104.06	6
104.08	4
104.1	5
104.12	10
104.14	9
104.16	10
104.18	2
104.2	6
104.22	8
104.24	7
104.26	3
104.28	7
104.3	1
104.32	3
104.34	4
104.36	6
104.38	4
104.4	4
104.42	5
104.44	4
104.46	9
104.48	9
104.5	3
104.52	1
104.54	6
104.56	6
104.58	3
104.6	8
104.62	6
104.64	8
104.66	2
104.68	3
104.7	4
104.72	7
104.74	4
104.76	4
104.78	7
104.8	4
104.82	12
104.84	4
104.86	2
104.88	7
104.9	7
104.92	8
104.94	3
104.96	8
104.98	7
105	9
105.02	4
105.04	5
105.06	6
105.08	9
105.1	4
105.12	14
105.14	8
105.16	6
105.18	7
105.2	8
105.22	4
105.24	6
105.26	4
105.28	6
105.3	13
105.32	5
105.34	7
105.36	5
105.38	7
105.4	7
105.42	12
105.44	4
105.46	4
105.48	11
105.5	7
105.52	10
105.54	8
105.56	6
105.58	3
105.6	5
105.62	3
105.64	8
105.66	1
105.68	6
105.7	7
105.72	8
105.74	1
105.76	8
105.78	6
105.8	5
105.82	6
105.84	5
105.86	6
105.88	8
105.9	5
105.92	4
105.94	6
105.96	3
105.98	4
106	5
106.02	5
106.04	6
106.06	1
106.08	4
106.1	10
106.12	10
106.14	3
106.16	8
106.18	6
106.2	4
106.22	3
106.24	5
106.26	4
106.28	4
106.3	8
106.32	4
106.34	1
106.36	2
106.38	8
106.4	14
106.42	8
106.44	8
106.46	12
106.48	5
106.5	7
106.52	3
106.54	8
106.56	4
106.58	3
106.6	3
106.62	7
106.64	6
106.66	3
106.68	5
106.7	6
106.72	8
106.74	5
106.76	6
106.78	5
106.8	6
106.82	7
106.84	5
106.86	8
106.88	4
106.9	7
106.92	5
106.94	6
106.96	6
106.98	7
107	10
107.02	9
107.04	5
107.06	5
107.08	2
107.1	6
107.12	3
107.14	5
107.16	6
107.18	4
107.2	14
107.22	6
107.24	3
107.26	4
107.28	2
107.3	7
107.32	10
107.34	11
107.36	4
107.38	9
107.4	8
107.42	8
107.44	2
107.46	5
107.48	8
107.5	3
107.52	7
107.54	9
107.56	3
107.58	5
107.6	6
107.62	3
107.64	9
107.66	5
107.68	4
107.7	4
107.72	6
107.74	7
107.76	3
107.78	6
107.8	5
107.82	6
107.84	6
107.86	6
107.88	5
107.9	5
107.92	9
107.94	6
107.96	9
107.98	6
108	7
108.02	1
108.04	3
108.06	6
108.08	5
108.1	9
108.12	5
108.14	7
108.16	4
108.18	5
108.2	4
108.22	2
108.24	5
108.26	3
108.28	1
108.3	6
108.32	9
108.34	4
108.36	6
108.38	8
108.4	5
108.42	4
108.44	3
108.46	11
108.48	5
108.5	7
108.52	4
108.54	7
108.56	6
108.58	8
108.6	7
108.62	6
108.64	4
108.66	3
108.68	9
108.7	7
108.72	6
108.74	5
108.76	9
108.78	3
108.8	7
108.82	4
108.84	3
108.86	5
108.88	7
108.9	3
108.92	3
108.94	6
108.96	7
108.98	4
109	6
109.02	6
109.04	11
109.06	3
109.08	5
109.1	8
109.12	0
109.14	4
109.16	6
109.18	2
109.2	7
109.22	6
109.24	2
109.26	9
109.28	8
109.3	8
109.32	8
109.34	6
109.36	5
109.38	6
109.4	8
109.42	1
109.44	3
109.46	9
109.48	6
109.5	5
109.52	4
109.54	8
109.56	6
109.58	8
109.6	6
109.62	10
109.64	5
109.66	6
109.68	9
109.7	3
109.72	9
109.74	5
109.76	9
109.78	4
109.8	6
109.82	5
109.84	12
109.86	8
109.88	8
109.9	9
109.92	5
109.94	5
109.96	5
109.98	3
110	2
110.02	3
110.04	12
110.06	5
110.08	6
110.1	4
110.12	11
110.14	5
110.16	7
110.18	5
110.2	7
110.22	3
110.24	5
110.26	6
110.28	7
110.3	6
110.32	3
110.34	4
110.36	6
110.38	6
110.4	8
110.42	5
110.44	6
110.46	4
110.48	2
110.5	5
110.52	10
110.54	7
110.56	6
110.58	7
110.6	7
110.62	7
110.64	6
110.66	6
110.68	5
110.7	5
110.72	5
110.74	7
110.76	4
110.78	10
110.8	3
110.82	6
110.84	8
110.86	5
110.88	4
110.9	6
110.92	5
110.94	9
110.96	5
110.98	4
111	6
111.02	4
111.04	6
111.06	6
111.08	5
111.1	6
111.12	8
111.14	4
111.16	11
111.18	6
111.2	10
111.22	3
111.24	3
111.26	6
111.28	1
111.3	8
111.32	11
111.34	4
111.36	7
111.38	1
111.4	8
111.42	8
111.44	8
111.46	5
111.48	5
111.5	7
111.52	6
111.54	5
111.56	8
111.58	5
111.6	8
111.62	8
111.64	13
111.66	6
111.68	6
111.7	9
111.72	4
111.74	7
111.76	4
111.78	7
111.8	7
111.82	7
111.84	7
111.86	3
111.88	10
111.9	6
111.92	7
111.94	6
111.96	5
111.98	7
112	5
112.02	3
112.04	7
112.06	10
112.08	6
112.1	7
112.12	17
112.14	10
112.16	8
112.18	9
112.2	9
112.22	4
112.24	8
112.26	6
112.28	6
112.3	8
112.32	4
112.34	6
112.36	7
112.38	9
112.4	7
112.42	7
112.44	8
112.46	10
112.48	7
112.5	2
112.52	8
112.54	5
112.56	6
112.58	4
112.6	6
112.62	7
112.64	5
112.66	6
112.68	6
112.7	9
112.72	6
112.74	7
112.76	3
112.78	8
112.8	11
112.82	10
112.84	4
112.86	12
112.88	7
112.9	1
112.92	5
112.94	5
112.96	5
112.98	5
113	7
113.02	7
113.04	4
113.06	4
113.08	11
113.1	8
113.12	11
113.14	6
113.16	3
113.18	4
113.2	9
113.22	4
113.24	6
113.26	8
113.28	8
113.3	4
113.32	6
113.34	3
113.36	5
113.38	1
113.4	4
113.42	3
113.44	6
113.46	8
113.48	12
113.5	6
113.52	6
113.54	5
113.56	7
113.58	8
113.6	7
113.62	10
113.64	10
113.66	8
113.68	6
113.7	8
113.72	8
113.74	5
113.76	5
113.78	7
113.8	2
113.82	5
113.84	6
113.86	7
113.88	10
113.9	10
113.92	8
113.94	6
113.96	11
113.98	7
114	14
114.02	6
114.04	10
114.06	6
114.08	9
114.1	7
114.12	11
114.14	11
114.16	6
114.18	8
114.2	3
114.22	8
114.24	6
114.26	5
114.28	3
114.3	8
114.32	11
114.34	9
114.36	6
114.38	10
114.4	5
114.42	4
114.44	7
114.46	9
114.48	7
114.5	8
114.52	12
114.54	8
114.56	6
114.58	9
114.6	8
114.62	6
114.64	8
114.66	2
114.68	7
114.7	6
114.72	2
114.74	10
114.76	8
114.78	11
114.8	3
114.82	6
114.84	6
114.86	13
114.88	4
114.9	4
114.92	2
114.94	8
114.96	6
114.98	4
115	7
115.02	5
115.04	8
115.06	5
115.08	2
115.1	5
115.12	3
115.14	6
115.16	11
115.18	8
115.2	9
115.22	6
115.24	3
115.26	8
115.28	3
115.3	8
115.32	8
115.34	5
115.36	6
115.38	8
115.4	6
115.42	8
115.44	2
115.46	5
115.48	6
115.5	6
115.52	2
115.54	9
115.56	6
115.58	9
115.6	6
115.62	6
115.64	6
115.66	9
115.68	11
115.7	10
115.72	3
115.74	9
115.76	8
115.78	5
115.8	8
115.82	6
115.84	6
115.86	8
115.88	5
115.9	10
115.92	9
115.94	1
115.96	9
115.98	12
116	7
116.02	2
116.04	4
116.06	9
116.08	8
116.1	4
116.12	4
116.14	5
116.16	3
116.18	4
116.2	7
116.22	7
116.24	8
116.26	4
116.28	5
116.3	7
116.32	4
116.34	6
116.36	7
116.38	9
116.4	7
116.42	5
116.44	2
116.46	7
116.48	8
116.5	4
116.52	7
116.54	6
116.56	7
116.58	6
116.6	6
116.62	8
116.64	10
116.66	7
116.68	5
116.7	5
116.72	7
116.74	6
116.76	2
116.78	10
116.8	7
116.82	11
116.84	5
116.86	11
116.88	8
116.9	8
116.92	4
116.94	10
116.96	8
116.98	2
117	10
117.02	12
117.04	9
117.06	8
117.08	6
117.1	4
117.12	5
117.14	7
117.16	10
117.18	1
117.2	8
117.22	7
117.24	8
117.26	9
117.28	5
117.3	9
117.32	4
117.34	8
117.36	4
117.38	7
117.4	9
117.42	11
117.44	5
117.46	8
117.48	10
117.5	6
117.52	9
117.54	9
117.56	6
117.58	8
117.6	5
117.62	6
117.64	9
117.66	6
117.68	6
117.7	4
117.72	6
117.74	5
117.76	10
117.78	6
117.8	9
117.82	12
117.84	7
117.86	4
117.88	6
117.9	5
117.92	3
117.94	9
117.96	9
117.98	10
118	6
118.02	6
118.04	5
118.06	7
118.08	6
118.1	7
118.12	11
118.14	3
118.16	8
118.18	5
118.2	4
118.22	7
118.24	8
118.26	8
118.28	9
118.3	6
118.32	5
118.34	3
118.36	5
118.38	4
118.4	6
118.42	6
118.44	4
118.46	6
118.48	1
118.5	8
118.52	5
118.54	7
118.56	8
118.58	6
118.6	13
118.62	3
118.64	3
118.66	8
118.68	9
118.7	7
118.72	5
118.74	2
118.76	6
118.78	9
118.8	4
118.82	9
118.84	2
118.86	7
118.88	9
118.9	4
118.92	7
118.94	5
118.96	7
118.98	11
119	7
119.02	3
119.04	9
119.06	4
119.08	4
119.1	6
119.12	2
119.14	6
119.16	9
119.18	5
119.2	3
119.22	8
119.24	6
119.26	2
119.28	9
119.3	4
119.32	5
119.34	8
119.36	9
119.38	5
119.4	6
119.42	9
119.44	12
119.46	5
119.48	8
119.5	4
119.52	7
119.54	3
119.56	9
119.58	8
119.6	7
119.62	8
119.64	9
119.66	6
119.68	5
119.7	8
119.72	7
119.74	8
119.76	8
119.78	3
119.8	7
119.82	4
119.84	5
119.86	8
119.88	9
119.9	9
119.92	12
119.94	9
119.96	6
119.98	3
120	5
