Sample	
Comments	
Filename	C:\DOCUME~1\ALUNOS\DESKTOP\F740B_1S2022_GRUPO1\amostra1_20-100_002_25_19-04-22_21-30.raw
Goniometer	Miniflex goniometer
Attachment	Standard sample holder
Monochromater	None
ScanningMode	2Theta/Theta
ScanningType	Continuos Scanning
X-Ray	30kV/15mA
Divergence slit	Unknown
Scattering slit	4.2deg.
Receiving slit	0.3mm
Kb filter	
Start	20
Stop	100
Step	0.02
20	8
20.02	15
20.04	11
20.06	8
20.08	10
20.1	10
20.12	13
20.14	7
20.16	14
20.18	9
20.2	13
20.22	16
20.24	9
20.26	15
20.28	17
20.3	15
20.32	11
20.34	12
20.36	17
20.38	12
20.4	9
20.42	13
20.44	10
20.46	11
20.48	7
20.5	6
20.52	13
20.54	7
20.56	11
20.58	10
20.6	19
20.62	9
20.64	11
20.66	10
20.68	13
20.7	16
20.72	10
20.74	14
20.76	13
20.78	15
20.8	11
20.82	6
20.84	19
20.86	17
20.88	15
20.9	13
20.92	14
20.94	14
20.96	13
20.98	16
21	8
21.02	12
21.04	12
21.06	13
21.08	16
21.1	6
21.12	15
21.14	12
21.16	14
21.18	10
21.2	13
21.22	13
21.24	12
21.26	15
21.28	11
21.3	9
21.32	11
21.34	12
21.36	16
21.38	5
21.4	9
21.42	5
21.44	11
21.46	6
21.48	13
21.5	15
21.52	13
21.54	9
21.56	6
21.58	11
21.6	12
21.62	10
21.64	21
21.66	16
21.68	11
21.7	15
21.72	13
21.74	16
21.76	9
21.78	4
21.8	20
21.82	10
21.84	11
21.86	6
21.88	15
21.9	10
21.92	13
21.94	24
21.96	14
21.98	11
22	11
22.02	14
22.04	11
22.06	17
22.08	10
22.1	7
22.12	10
22.14	8
22.16	9
22.18	17
22.2	9
22.22	18
22.24	12
22.26	13
22.28	10
22.3	11
22.32	9
22.34	12
22.36	18
22.38	9
22.4	12
22.42	16
22.44	16
22.46	11
22.48	8
22.5	11
22.52	23
22.54	10
22.56	13
22.58	12
22.6	8
22.62	11
22.64	16
22.66	13
22.68	16
22.7	20
22.72	9
22.74	12
22.76	16
22.78	14
22.8	10
22.82	12
22.84	18
22.86	13
22.88	20
22.9	6
22.92	16
22.94	10
22.96	8
22.98	12
23	10
23.02	13
23.04	12
23.06	15
23.08	14
23.1	12
23.12	11
23.14	18
23.16	15
23.18	19
23.2	11
23.22	11
23.24	15
23.26	24
23.28	13
23.3	17
23.32	10
23.34	10
23.36	21
23.38	23
23.4	10
23.42	15
23.44	17
23.46	23
23.48	12
23.5	16
23.52	12
23.54	20
23.56	7
23.58	9
23.6	15
23.62	7
23.64	17
23.66	22
23.68	13
23.7	16
23.72	15
23.74	14
23.76	20
23.78	14
23.8	12
23.82	17
23.84	17
23.86	13
23.88	7
23.9	13
23.92	11
23.94	24
23.96	15
23.98	13
24	16
24.02	14
24.04	18
24.06	16
24.08	19
24.1	14
24.12	14
24.14	13
24.16	8
24.18	14
24.2	13
24.22	11
24.24	19
24.26	22
24.28	16
24.3	15
24.32	12
24.34	14
24.36	7
24.38	6
24.4	21
24.42	8
24.44	12
24.46	20
24.48	12
24.5	15
24.52	12
24.54	12
24.56	17
24.58	11
24.6	23
24.62	15
24.64	17
24.66	18
24.68	12
24.7	14
24.72	15
24.74	15
24.76	16
24.78	16
24.8	10
24.82	12
24.84	28
24.86	17
24.88	16
24.9	17
24.92	24
24.94	18
24.96	18
24.98	19
25	16
25.02	16
25.04	12
25.06	11
25.08	8
25.1	15
25.12	13
25.14	7
25.16	15
25.18	10
25.2	12
25.22	12
25.24	14
25.26	19
25.28	11
25.3	12
25.32	11
25.34	11
25.36	14
25.38	15
25.4	13
25.42	11
25.44	14
25.46	11
25.48	7
25.5	12
25.52	12
25.54	17
25.56	11
25.58	14
25.6	12
25.62	14
25.64	14
25.66	13
25.68	17
25.7	14
25.72	12
25.74	22
25.76	12
25.78	20
25.8	7
25.82	6
25.84	18
25.86	13
25.88	15
25.9	15
25.92	12
25.94	10
25.96	15
25.98	15
26	16
26.02	7
26.04	15
26.06	14
26.08	18
26.1	10
26.12	13
26.14	12
26.16	14
26.18	21
26.2	12
26.22	13
26.24	13
26.26	23
26.28	12
26.3	17
26.32	18
26.34	17
26.36	13
26.38	20
26.4	14
26.42	23
26.44	21
26.46	16
26.48	13
26.5	21
26.52	13
26.54	7
26.56	11
26.58	16
26.6	9
26.62	15
26.64	17
26.66	14
26.68	11
26.7	13
26.72	10
26.74	14
26.76	18
26.78	18
26.8	10
26.82	20
26.84	22
26.86	13
26.88	10
26.9	20
26.92	17
26.94	13
26.96	9
26.98	11
27	16
27.02	21
27.04	18
27.06	13
27.08	9
27.1	10
27.12	8
27.14	15
27.16	28
27.18	14
27.2	15
27.22	12
27.24	15
27.26	14
27.28	16
27.3	12
27.32	16
27.34	17
27.36	15
27.38	13
27.4	9
27.42	18
27.44	12
27.46	11
27.48	15
27.5	11
27.52	18
27.54	12
27.56	10
27.58	12
27.6	15
27.62	14
27.64	8
27.66	11
27.68	16
27.7	14
27.72	12
27.74	12
27.76	18
27.78	17
27.8	17
27.82	13
27.84	17
27.86	12
27.88	17
27.9	19
27.92	17
27.94	6
27.96	6
27.98	16
28	19
28.02	14
28.04	14
28.06	5
28.08	10
28.1	9
28.12	10
28.14	10
28.16	19
28.18	21
28.2	15
28.22	16
28.24	21
28.26	22
28.28	20
28.3	17
28.32	17
28.34	21
28.36	13
28.38	12
28.4	8
28.42	13
28.44	5
28.46	13
28.48	8
28.5	13
28.52	14
28.54	17
28.56	19
28.58	20
28.6	20
28.62	12
28.64	15
28.66	20
28.68	13
28.7	14
28.72	22
28.74	17
28.76	9
28.78	11
28.8	18
28.82	10
28.84	16
28.86	16
28.88	8
28.9	13
28.92	13
28.94	14
28.96	18
28.98	19
29	17
29.02	14
29.04	15
29.06	11
29.08	13
29.1	15
29.12	14
29.14	11
29.16	13
29.18	20
29.2	12
29.22	18
29.24	11
29.26	14
29.28	15
29.3	7
29.32	15
29.34	16
29.36	7
29.38	12
29.4	15
29.42	6
29.44	12
29.46	12
29.48	12
29.5	15
29.52	14
29.54	15
29.56	9
29.58	14
29.6	10
29.62	16
29.64	10
29.66	18
29.68	20
29.7	11
29.72	11
29.74	24
29.76	16
29.78	12
29.8	11
29.82	16
29.84	7
29.86	14
29.88	8
29.9	18
29.92	11
29.94	14
29.96	18
29.98	10
30	16
30.02	17
30.04	14
30.06	12
30.08	15
30.1	13
30.12	19
30.14	19
30.16	19
30.18	13
30.2	16
30.22	22
30.24	19
30.26	20
30.28	16
30.3	20
30.32	7
30.34	15
30.36	15
30.38	18
30.4	16
30.42	19
30.44	17
30.46	14
30.48	19
30.5	18
30.52	15
30.54	10
30.56	16
30.58	15
30.6	13
30.62	16
30.64	12
30.66	11
30.68	14
30.7	16
30.72	16
30.74	8
30.76	12
30.78	17
30.8	13
30.82	16
30.84	20
30.86	12
30.88	15
30.9	11
30.92	13
30.94	8
30.96	19
30.98	10
31	14
31.02	9
31.04	14
31.06	12
31.08	16
31.1	17
31.12	12
31.14	8
31.16	10
31.18	24
31.2	21
31.22	21
31.24	13
31.26	17
31.28	11
31.3	13
31.32	16
31.34	17
31.36	14
31.38	12
31.4	13
31.42	16
31.44	19
31.46	10
31.48	19
31.5	16
31.52	21
31.54	17
31.56	16
31.58	12
31.6	9
31.62	21
31.64	12
31.66	16
31.68	19
31.7	13
31.72	14
31.74	13
31.76	10
31.78	14
31.8	17
31.82	10
31.84	5
31.86	22
31.88	10
31.9	17
31.92	15
31.94	15
31.96	17
31.98	18
32	12
32.02	9
32.04	15
32.06	10
32.08	12
32.1	7
32.12	12
32.14	21
32.16	18
32.18	18
32.2	8
32.22	12
32.24	13
32.26	13
32.28	16
32.3	13
32.32	20
32.34	12
32.36	16
32.38	14
32.4	13
32.42	11
32.44	10
32.46	12
32.48	15
32.5	25
32.52	14
32.54	11
32.56	19
32.58	8
32.6	20
32.62	21
32.64	17
32.66	13
32.68	9
32.7	18
32.72	13
32.74	15
32.76	16
32.78	15
32.8	17
32.82	17
32.84	15
32.86	15
32.88	10
32.9	16
32.92	10
32.94	13
32.96	16
32.98	21
33	13
33.02	19
33.04	18
33.06	14
33.08	15
33.1	19
33.12	17
33.14	15
33.16	15
33.18	14
33.2	21
33.22	9
33.24	19
33.26	19
33.28	15
33.3	15
33.32	15
33.34	14
33.36	12
33.38	9
33.4	18
33.42	15
33.44	18
33.46	15
33.48	16
33.5	16
33.52	17
33.54	14
33.56	15
33.58	14
33.6	11
33.62	14
33.64	8
33.66	17
33.68	14
33.7	16
33.72	12
33.74	9
33.76	17
33.78	17
33.8	16
33.82	9
33.84	17
33.86	29
33.88	19
33.9	15
33.92	14
33.94	15
33.96	14
33.98	19
34	15
34.02	14
34.04	15
34.06	26
34.08	18
34.1	15
34.12	16
34.14	10
34.16	18
34.18	16
34.2	18
34.22	14
34.24	6
34.26	23
34.28	17
34.3	19
34.32	12
34.34	15
34.36	12
34.38	9
34.4	13
34.42	10
34.44	16
34.46	18
34.48	14
34.5	10
34.52	17
34.54	12
34.56	15
34.58	12
34.6	18
34.62	16
34.64	21
34.66	14
34.68	18
34.7	18
34.72	18
34.74	13
34.76	19
34.78	18
34.8	16
34.82	13
34.84	11
34.86	11
34.88	11
34.9	19
34.92	21
34.94	14
34.96	13
34.98	18
35	18
35.02	12
35.04	19
35.06	9
35.08	15
35.1	16
35.12	18
35.14	15
35.16	8
35.18	14
35.2	14
35.22	16
35.24	18
35.26	18
35.28	19
35.3	11
35.32	13
35.34	12
35.36	6
35.38	12
35.4	19
35.42	16
35.44	16
35.46	15
35.48	12
35.5	10
35.52	17
35.54	14
35.56	9
35.58	20
35.6	15
35.62	10
35.64	20
35.66	14
35.68	19
35.7	14
35.72	14
35.74	12
35.76	13
35.78	10
35.8	22
35.82	15
35.84	17
35.86	16
35.88	20
35.9	23
35.92	11
35.94	20
35.96	12
35.98	19
36	8
36.02	16
36.04	14
36.06	9
36.08	19
36.1	10
36.12	18
36.14	13
36.16	10
36.18	7
36.2	12
36.22	24
36.24	11
36.26	17
36.28	12
36.3	20
36.32	13
36.34	13
36.36	18
36.38	11
36.4	14
36.42	17
36.44	17
36.46	14
36.48	20
36.5	22
36.52	13
36.54	17
36.56	10
36.58	16
36.6	15
36.62	17
36.64	9
36.66	14
36.68	25
36.7	16
36.72	20
36.74	10
36.76	12
36.78	10
36.8	14
36.82	17
36.84	18
36.86	9
36.88	15
36.9	13
36.92	11
36.94	22
36.96	15
36.98	17
37	12
37.02	12
37.04	15
37.06	17
37.08	12
37.1	8
37.12	14
37.14	17
37.16	11
37.18	16
37.2	9
37.22	18
37.24	19
37.26	17
37.28	11
37.3	12
37.32	12
37.34	10
37.36	27
37.38	27
37.4	15
37.42	19
37.44	13
37.46	21
37.48	17
37.5	11
37.52	16
37.54	21
37.56	18
37.58	13
37.6	14
37.62	16
37.64	14
37.66	12
37.68	16
37.7	11
37.72	16
37.74	16
37.76	17
37.78	18
37.8	10
37.82	22
37.84	22
37.86	21
37.88	12
37.9	12
37.92	18
37.94	18
37.96	18
37.98	13
38	17
38.02	16
38.04	14
38.06	12
38.08	15
38.1	14
38.12	12
38.14	12
38.16	14
38.18	18
38.2	20
38.22	15
38.24	18
38.26	13
38.28	18
38.3	11
38.32	22
38.34	14
38.36	24
38.38	16
38.4	12
38.42	12
38.44	10
38.46	10
38.48	17
38.5	13
38.52	20
38.54	11
38.56	19
38.58	19
38.6	6
38.62	24
38.64	17
38.66	19
38.68	26
38.7	16
38.72	16
38.74	14
38.76	14
38.78	9
38.8	13
38.82	15
38.84	18
38.86	13
38.88	12
38.9	23
38.92	13
38.94	17
38.96	12
38.98	20
39	15
39.02	20
39.04	20
39.06	17
39.08	14
39.1	13
39.12	23
39.14	9
39.16	16
39.18	22
39.2	15
39.22	16
39.24	18
39.26	10
39.28	18
39.3	20
39.32	21
39.34	22
39.36	16
39.38	14
39.4	18
39.42	15
39.44	16
39.46	12
39.48	14
39.5	13
39.52	15
39.54	21
39.56	16
39.58	20
39.6	17
39.62	13
39.64	22
39.66	21
39.68	19
39.7	13
39.72	20
39.74	15
39.76	19
39.78	12
39.8	22
39.82	14
39.84	15
39.86	14
39.88	23
39.9	13
39.92	12
39.94	18
39.96	12
39.98	12
40	15
40.02	13
40.04	20
40.06	13
40.08	19
40.1	13
40.12	16
40.14	18
40.16	19
40.18	14
40.2	22
40.22	15
40.24	14
40.26	12
40.28	14
40.3	16
40.32	23
40.34	13
40.36	19
40.38	15
40.4	19
40.42	14
40.44	11
40.46	20
40.48	16
40.5	12
40.52	19
40.54	13
40.56	21
40.58	12
40.6	14
40.62	18
40.64	17
40.66	17
40.68	13
40.7	11
40.72	13
40.74	19
40.76	21
40.78	18
40.8	20
40.82	13
40.84	20
40.86	20
40.88	16
40.9	18
40.92	15
40.94	17
40.96	16
40.98	18
41	17
41.02	17
41.04	10
41.06	25
41.08	13
41.1	11
41.12	20
41.14	14
41.16	25
41.18	13
41.2	19
41.22	18
41.24	11
41.26	13
41.28	21
41.3	14
41.32	17
41.34	20
41.36	12
41.38	13
41.4	19
41.42	14
41.44	18
41.46	15
41.48	16
41.5	15
41.52	19
41.54	9
41.56	12
41.58	22
41.6	24
41.62	8
41.64	15
41.66	20
41.68	13
41.7	22
41.72	17
41.74	18
41.76	18
41.78	16
41.8	19
41.82	13
41.84	17
41.86	17
41.88	11
41.9	16
41.92	15
41.94	25
41.96	17
41.98	22
42	18
42.02	20
42.04	20
42.06	17
42.08	22
42.1	13
42.12	23
42.14	9
42.16	15
42.18	16
42.2	12
42.22	19
42.24	14
42.26	19
42.28	19
42.3	20
42.32	15
42.34	20
42.36	19
42.38	17
42.4	13
42.42	15
42.44	14
42.46	16
42.48	23
42.5	22
42.52	20
42.54	14
42.56	22
42.58	21
42.6	20
42.62	21
42.64	19
42.66	16
42.68	19
42.7	16
42.72	20
42.74	16
42.76	12
42.78	21
42.8	20
42.82	19
42.84	9
42.86	23
42.88	19
42.9	20
42.92	26
42.94	20
42.96	10
42.98	34
43	21
43.02	17
43.04	29
43.06	19
43.08	31
43.1	31
43.12	29
43.14	23
43.16	42
43.18	35
43.2	41
43.22	33
43.24	40
43.26	46
43.28	52
43.3	50
43.32	55
43.34	55
43.36	50
43.38	60
43.4	59
43.42	64
43.44	77
43.46	61
43.48	71
43.5	66
43.52	51
43.54	59
43.56	63
43.58	56
43.6	61
43.62	32
43.64	38
43.66	43
43.68	21
43.7	27
43.72	33
43.74	25
43.76	26
43.78	19
43.8	21
43.82	17
43.84	25
43.86	24
43.88	22
43.9	19
43.92	17
43.94	27
43.96	22
43.98	14
44	17
44.02	15
44.04	17
44.06	24
44.08	20
44.1	19
44.12	18
44.14	24
44.16	25
44.18	15
44.2	19
44.22	18
44.24	21
44.26	26
44.28	18
44.3	17
44.32	22
44.34	19
44.36	29
44.38	15
44.4	21
44.42	19
44.44	14
44.46	15
44.48	16
44.5	19
44.52	13
44.54	21
44.56	20
44.58	17
44.6	19
44.62	14
44.64	13
44.66	14
44.68	12
44.7	15
44.72	19
44.74	18
44.76	16
44.78	11
44.8	18
44.82	18
44.84	25
44.86	20
44.88	18
44.9	17
44.92	13
44.94	14
44.96	23
44.98	18
45	20
45.02	14
45.04	19
45.06	15
45.08	15
45.1	21
45.12	20
45.14	18
45.16	12
45.18	19
45.2	19
45.22	18
45.24	21
45.26	16
45.28	12
45.3	24
45.32	23
45.34	20
45.36	21
45.38	20
45.4	15
45.42	16
45.44	13
45.46	21
45.48	18
45.5	14
45.52	14
45.54	15
45.56	22
45.58	17
45.6	13
45.62	17
45.64	27
45.66	17
45.68	19
45.7	26
45.72	17
45.74	20
45.76	14
45.78	17
45.8	12
45.82	16
45.84	15
45.86	12
45.88	21
45.9	12
45.92	21
45.94	18
45.96	13
45.98	23
46	18
46.02	11
46.04	15
46.06	15
46.08	19
46.1	13
46.12	20
46.14	21
46.16	23
46.18	20
46.2	18
46.22	23
46.24	14
46.26	10
46.28	11
46.3	15
46.32	20
46.34	18
46.36	22
46.38	20
46.4	23
46.42	18
46.44	16
46.46	28
46.48	19
46.5	12
46.52	26
46.54	21
46.56	15
46.58	20
46.6	20
46.62	25
46.64	15
46.66	23
46.68	18
46.7	22
46.72	23
46.74	22
46.76	17
46.78	16
46.8	18
46.82	22
46.84	21
46.86	22
46.88	16
46.9	19
46.92	22
46.94	20
46.96	14
46.98	11
47	22
47.02	25
47.04	17
47.06	13
47.08	19
47.1	12
47.12	14
47.14	16
47.16	24
47.18	21
47.2	22
47.22	15
47.24	21
47.26	22
47.28	23
47.3	18
47.32	21
47.34	17
47.36	21
47.38	18
47.4	15
47.42	23
47.44	27
47.46	12
47.48	18
47.5	12
47.52	15
47.54	9
47.56	18
47.58	19
47.6	20
47.62	19
47.64	17
47.66	19
47.68	15
47.7	23
47.72	16
47.74	13
47.76	14
47.78	20
47.8	21
47.82	24
47.84	17
47.86	15
47.88	20
47.9	23
47.92	21
47.94	24
47.96	26
47.98	20
48	11
48.02	15
48.04	13
48.06	14
48.08	18
48.1	13
48.12	12
48.14	15
48.16	23
48.18	21
48.2	15
48.22	20
48.24	17
48.26	16
48.28	18
48.3	14
48.32	14
48.34	20
48.36	21
48.38	17
48.4	21
48.42	21
48.44	18
48.46	15
48.48	13
48.5	21
48.52	18
48.54	16
48.56	19
48.58	18
48.6	20
48.62	13
48.64	15
48.66	16
48.68	22
48.7	27
48.72	14
48.74	20
48.76	20
48.78	12
48.8	14
48.82	21
48.84	26
48.86	15
48.88	17
48.9	22
48.92	22
48.94	19
48.96	18
48.98	18
49	16
49.02	20
49.04	23
49.06	31
49.08	21
49.1	16
49.12	16
49.14	24
49.16	14
49.18	26
49.2	14
49.22	21
49.24	24
49.26	22
49.28	16
49.3	16
49.32	20
49.34	16
49.36	13
49.38	16
49.4	26
49.42	20
49.44	29
49.46	16
49.48	15
49.5	23
49.52	17
49.54	18
49.56	23
49.58	15
49.6	27
49.62	14
49.64	17
49.66	20
49.68	19
49.7	21
49.72	19
49.74	12
49.76	22
49.78	26
49.8	30
49.82	21
49.84	24
49.86	22
49.88	30
49.9	23
49.92	26
49.94	33
49.96	22
49.98	24
50	22
50.02	21
50.04	30
50.06	41
50.08	40
50.1	39
50.12	37
50.14	39
50.16	39
50.18	51
50.2	52
50.22	48
50.24	51
50.26	50
50.28	54
50.3	74
50.32	67
50.34	74
50.36	71
50.38	92
50.4	94
50.42	99
50.44	116
50.46	100
50.48	128
50.5	107
50.52	130
50.54	113
50.56	114
50.58	131
50.6	141
50.62	129
50.64	121
50.66	110
50.68	110
50.7	86
50.72	67
50.74	76
50.76	63
50.78	55
50.8	61
50.82	59
50.84	38
50.86	53
50.88	46
50.9	40
50.92	36
50.94	25
50.96	32
50.98	23
51	33
51.02	23
51.04	26
51.06	23
51.08	14
51.1	18
51.12	17
51.14	23
51.16	20
51.18	18
51.2	23
51.22	19
51.24	25
51.26	21
51.28	24
51.3	20
51.32	25
51.34	18
51.36	24
51.38	25
51.4	26
51.42	24
51.44	20
51.46	20
51.48	23
51.5	17
51.52	19
51.54	23
51.56	24
51.58	24
51.6	27
51.62	24
51.64	15
51.66	15
51.68	12
51.7	19
51.72	16
51.74	18
51.76	17
51.78	23
51.8	21
51.82	22
51.84	15
51.86	30
51.88	29
51.9	19
51.92	24
51.94	16
51.96	22
51.98	22
52	22
52.02	18
52.04	23
52.06	20
52.08	24
52.1	30
52.12	21
52.14	25
52.16	15
52.18	21
52.2	19
52.22	19
52.24	23
52.26	16
52.28	14
52.3	29
52.32	18
52.34	19
52.36	32
52.38	22
52.4	15
52.42	20
52.44	25
52.46	17
52.48	29
52.5	21
52.52	16
52.54	21
52.56	23
52.58	21
52.6	15
52.62	25
52.64	22
52.66	17
52.68	17
52.7	19
52.72	20
52.74	16
52.76	24
52.78	20
52.8	26
52.82	19
52.84	19
52.86	22
52.88	23
52.9	16
52.92	16
52.94	28
52.96	21
52.98	27
53	33
53.02	20
53.04	17
53.06	23
53.08	18
53.1	19
53.12	21
53.14	23
53.16	17
53.18	27
53.2	20
53.22	22
53.24	15
53.26	12
53.28	11
53.3	17
53.32	12
53.34	14
53.36	14
53.38	23
53.4	22
53.42	18
53.44	15
53.46	39
53.48	26
53.5	22
53.52	19
53.54	20
53.56	18
53.58	17
53.6	29
53.62	29
53.64	12
53.66	21
53.68	28
53.7	17
53.72	24
53.74	25
53.76	28
53.78	28
53.8	20
53.82	22
53.84	28
53.86	17
53.88	24
53.9	19
53.92	24
53.94	14
53.96	23
53.98	19
54	25
54.02	27
54.04	16
54.06	13
54.08	15
54.1	19
54.12	21
54.14	18
54.16	24
54.18	22
54.2	25
54.22	18
54.24	14
54.26	26
54.28	16
54.3	21
54.32	19
54.34	18
54.36	27
54.38	24
54.4	23
54.42	20
54.44	23
54.46	19
54.48	17
54.5	23
54.52	23
54.54	21
54.56	23
54.58	20
54.6	30
54.62	17
54.64	17
54.66	23
54.68	26
54.7	24
54.72	24
54.74	16
54.76	31
54.78	24
54.8	25
54.82	24
54.84	28
54.86	23
54.88	19
54.9	18
54.92	27
54.94	20
54.96	13
54.98	18
55	14
55.02	27
55.04	18
55.06	16
55.08	30
55.1	22
55.12	20
55.14	14
55.16	17
55.18	26
55.2	24
55.22	14
55.24	32
55.26	20
55.28	25
55.3	17
55.32	25
55.34	17
55.36	23
55.38	21
55.4	18
55.42	26
55.44	14
55.46	19
55.48	26
55.5	26
55.52	29
55.54	22
55.56	23
55.58	20
55.6	24
55.62	20
55.64	18
55.66	21
55.68	24
55.7	17
55.72	25
55.74	24
55.76	22
55.78	17
55.8	22
55.82	22
55.84	14
55.86	16
55.88	23
55.9	31
55.92	28
55.94	16
55.96	19
55.98	18
56	23
56.02	16
56.04	9
56.06	16
56.08	21
56.1	19
56.12	20
56.14	23
56.16	23
56.18	22
56.2	18
56.22	23
56.24	21
56.26	26
56.28	19
56.3	24
56.32	29
56.34	19
56.36	25
56.38	26
56.4	29
56.42	22
56.44	25
56.46	18
56.48	20
56.5	28
56.52	16
56.54	17
56.56	21
56.58	16
56.6	19
56.62	24
56.64	16
56.66	37
56.68	16
56.7	26
56.72	12
56.74	21
56.76	27
56.78	21
56.8	25
56.82	16
56.84	15
56.86	20
56.88	18
56.9	19
56.92	22
56.94	21
56.96	23
56.98	29
57	23
57.02	24
57.04	13
57.06	19
57.08	19
57.1	17
57.12	22
57.14	11
57.16	22
57.18	15
57.2	20
57.22	26
57.24	13
57.26	15
57.28	28
57.3	12
57.32	36
57.34	22
57.36	15
57.38	23
57.4	18
57.42	17
57.44	26
57.46	20
57.48	17
57.5	14
57.52	21
57.54	29
57.56	23
57.58	17
57.6	24
57.62	19
57.64	22
57.66	21
57.68	14
57.7	25
57.72	21
57.74	23
57.76	23
57.78	25
57.8	23
57.82	17
57.84	26
57.86	18
57.88	16
57.9	22
57.92	22
57.94	19
57.96	27
57.98	31
58	21
58.02	19
58.04	17
58.06	25
58.08	21
58.1	18
58.12	20
58.14	28
58.16	24
58.18	24
58.2	21
58.22	27
58.24	20
58.26	21
58.28	23
58.3	22
58.32	20
58.34	24
58.36	16
58.38	17
58.4	19
58.42	27
58.44	20
58.46	26
58.48	23
58.5	16
58.52	24
58.54	26
58.56	22
58.58	24
58.6	18
58.62	13
58.64	20
58.66	21
58.68	17
58.7	24
58.72	30
58.74	18
58.76	13
58.78	18
58.8	18
58.82	28
58.84	23
58.86	23
58.88	22
58.9	19
58.92	26
58.94	18
58.96	20
58.98	30
59	24
59.02	26
59.04	24
59.06	33
59.08	18
59.1	23
59.12	25
59.14	24
59.16	17
59.18	14
59.2	21
59.22	17
59.24	23
59.26	21
59.28	24
59.3	25
59.32	17
59.34	26
59.36	26
59.38	23
59.4	28
59.42	20
59.44	33
59.46	25
59.48	18
59.5	17
59.52	31
59.54	20
59.56	22
59.58	16
59.6	31
59.62	20
59.64	17
59.66	22
59.68	18
59.7	21
59.72	20
59.74	14
59.76	23
59.78	32
59.8	21
59.82	24
59.84	22
59.86	20
59.88	15
59.9	22
59.92	19
59.94	22
59.96	15
59.98	20
60	22
60.02	27
60.04	28
60.06	20
60.08	21
60.1	24
60.12	20
60.14	24
60.16	22
60.18	20
60.2	23
60.22	23
60.24	17
60.26	27
60.28	21
60.3	28
60.32	25
60.34	21
60.36	13
60.38	16
60.4	17
60.42	18
60.44	21
60.46	24
60.48	29
60.5	29
60.52	24
60.54	27
60.56	20
60.58	15
60.6	25
60.62	23
60.64	25
60.66	25
60.68	19
60.7	19
60.72	27
60.74	22
60.76	17
60.78	25
60.8	19
60.82	19
60.84	24
60.86	22
60.88	23
60.9	23
60.92	31
60.94	19
60.96	14
60.98	24
61	17
61.02	18
61.04	20
61.06	27
61.08	21
61.1	20
61.12	19
61.14	16
61.16	24
61.18	20
61.2	19
61.22	20
61.24	27
61.26	24
61.28	16
61.3	25
61.32	21
61.34	31
61.36	24
61.38	26
61.4	20
61.42	21
61.44	20
61.46	21
61.48	20
61.5	22
61.52	32
61.54	21
61.56	28
61.58	36
61.6	25
61.62	29
61.64	24
61.66	15
61.68	30
61.7	24
61.72	23
61.74	27
61.76	23
61.78	27
61.8	19
61.82	23
61.84	17
61.86	32
61.88	23
61.9	26
61.92	24
61.94	26
61.96	19
61.98	19
62	14
62.02	21
62.04	24
62.06	22
62.08	17
62.1	28
62.12	37
62.14	31
62.16	24
62.18	20
62.2	28
62.22	28
62.24	19
62.26	24
62.28	21
62.3	25
62.32	28
62.34	19
62.36	23
62.38	15
62.4	21
62.42	19
62.44	29
62.46	19
62.48	26
62.5	17
62.52	14
62.54	26
62.56	29
62.58	17
62.6	17
62.62	20
62.64	27
62.66	21
62.68	21
62.7	22
62.72	20
62.74	24
62.76	20
62.78	25
62.8	19
62.82	26
62.84	26
62.86	19
62.88	25
62.9	19
62.92	22
62.94	21
62.96	23
62.98	23
63	29
63.02	17
63.04	24
63.06	22
63.08	28
63.1	22
63.12	14
63.14	12
63.16	18
63.18	20
63.2	26
63.22	23
63.24	26
63.26	27
63.28	18
63.3	24
63.32	13
63.34	16
63.36	26
63.38	28
63.4	26
63.42	16
63.44	26
63.46	26
63.48	15
63.5	26
63.52	17
63.54	27
63.56	29
63.58	32
63.6	21
63.62	11
63.64	26
63.66	27
63.68	25
63.7	21
63.72	20
63.74	24
63.76	26
63.78	20
63.8	15
63.82	33
63.84	22
63.86	15
63.88	20
63.9	19
63.92	22
63.94	16
63.96	22
63.98	26
64	27
64.02	23
64.04	20
64.06	25
64.08	24
64.1	22
64.12	25
64.14	20
64.16	32
64.18	26
64.2	25
64.22	28
64.24	16
64.26	25
64.28	22
64.3	20
64.32	25
64.34	19
64.36	18
64.38	23
64.4	17
64.42	19
64.44	28
64.46	19
64.48	23
64.5	18
64.52	23
64.54	14
64.56	31
64.58	17
64.6	19
64.62	35
64.64	27
64.66	22
64.68	28
64.7	20
64.72	26
64.74	25
64.76	26
64.78	25
64.8	18
64.82	27
64.84	31
64.86	33
64.88	28
64.9	25
64.92	23
64.94	33
64.96	33
64.98	24
65	28
65.02	25
65.04	16
65.06	19
65.08	25
65.1	28
65.12	28
65.14	32
65.16	14
65.18	31
65.2	23
65.22	12
65.24	30
65.26	28
65.28	18
65.3	30
65.32	24
65.34	27
65.36	18
65.38	21
65.4	17
65.42	26
65.44	20
65.46	21
65.48	25
65.5	22
65.52	30
65.54	24
65.56	27
65.58	19
65.6	19
65.62	35
65.64	26
65.66	20
65.68	24
65.7	11
65.72	24
65.74	21
65.76	20
65.78	28
65.8	24
65.82	34
65.84	30
65.86	21
65.88	21
65.9	27
65.92	18
65.94	24
65.96	24
65.98	26
66	33
66.02	25
66.04	26
66.06	27
66.08	31
66.1	27
66.12	23
66.14	22
66.16	28
66.18	21
66.2	22
66.22	19
66.24	19
66.26	22
66.28	27
66.3	26
66.32	21
66.34	15
66.36	21
66.38	26
66.4	26
66.42	21
66.44	28
66.46	27
66.48	17
66.5	30
66.52	21
66.54	20
66.56	26
66.58	22
66.6	20
66.62	30
66.64	28
66.66	16
66.68	25
66.7	22
66.72	23
66.74	22
66.76	19
66.78	24
66.8	23
66.82	18
66.84	25
66.86	23
66.88	25
66.9	21
66.92	19
66.94	16
66.96	27
66.98	21
67	21
67.02	24
67.04	22
67.06	24
67.08	31
67.1	23
67.12	27
67.14	26
67.16	32
67.18	23
67.2	24
67.22	29
67.24	27
67.26	25
67.28	15
67.3	27
67.32	24
67.34	26
67.36	35
67.38	24
67.4	20
67.42	22
67.44	24
67.46	20
67.48	26
67.5	33
67.52	19
67.54	30
67.56	26
67.58	30
67.6	23
67.62	23
67.64	31
67.66	20
67.68	31
67.7	28
67.72	22
67.74	28
67.76	17
67.78	25
67.8	23
67.82	30
67.84	25
67.86	24
67.88	27
67.9	24
67.92	14
67.94	23
67.96	33
67.98	24
68	27
68.02	29
68.04	29
68.06	28
68.08	25
68.1	29
68.12	25
68.14	26
68.16	24
68.18	31
68.2	24
68.22	35
68.24	29
68.26	23
68.28	26
68.3	21
68.32	25
68.34	25
68.36	22
68.38	27
68.4	18
68.42	24
68.44	21
68.46	26
68.48	22
68.5	25
68.52	23
68.54	19
68.56	24
68.58	24
68.6	27
68.62	21
68.64	21
68.66	15
68.68	17
68.7	32
68.72	32
68.74	21
68.76	25
68.78	14
68.8	27
68.82	33
68.84	18
68.86	23
68.88	19
68.9	26
68.92	38
68.94	26
68.96	19
68.98	21
69	20
69.02	20
69.04	22
69.06	26
69.08	21
69.1	24
69.12	33
69.14	25
69.16	23
69.18	20
69.2	31
69.22	31
69.24	27
69.26	19
69.28	24
69.3	21
69.32	20
69.34	20
69.36	36
69.38	23
69.4	22
69.42	24
69.44	26
69.46	21
69.48	31
69.5	31
69.52	31
69.54	30
69.56	30
69.58	26
69.6	16
69.62	27
69.64	15
69.66	19
69.68	24
69.7	21
69.72	26
69.74	20
69.76	22
69.78	21
69.8	19
69.82	20
69.84	28
69.86	30
69.88	25
69.9	29
69.92	28
69.94	24
69.96	29
69.98	29
70	21
70.02	20
70.04	27
70.06	28
70.08	38
70.1	19
70.12	25
70.14	15
70.16	23
70.18	21
70.2	23
70.22	31
70.24	18
70.26	24
70.28	30
70.3	20
70.32	20
70.34	29
70.36	24
70.38	17
70.4	26
70.42	26
70.44	29
70.46	22
70.48	28
70.5	30
70.52	25
70.54	19
70.56	35
70.58	34
70.6	26
70.62	25
70.64	30
70.66	27
70.68	27
70.7	17
70.72	16
70.74	24
70.76	24
70.78	28
70.8	16
70.82	29
70.84	22
70.86	23
70.88	20
70.9	25
70.92	14
70.94	22
70.96	30
70.98	21
71	30
71.02	28
71.04	22
71.06	24
71.08	15
71.1	19
71.12	28
71.14	16
71.16	26
71.18	24
71.2	31
71.22	23
71.24	26
71.26	33
71.28	21
71.3	37
71.32	23
71.34	29
71.36	18
71.38	26
71.4	25
71.42	35
71.44	19
71.46	28
71.48	27
71.5	28
71.52	26
71.54	28
71.56	24
71.58	28
71.6	24
71.62	25
71.64	24
71.66	17
71.68	21
71.7	23
71.72	28
71.74	22
71.76	32
71.78	34
71.8	28
71.82	24
71.84	27
71.86	18
71.88	30
71.9	27
71.92	26
71.94	32
71.96	30
71.98	25
72	23
72.02	32
72.04	29
72.06	20
72.08	28
72.1	28
72.12	22
72.14	15
72.16	29
72.18	22
72.2	21
72.22	20
72.24	18
72.26	19
72.28	28
72.3	36
72.32	24
72.34	23
72.36	24
72.38	33
72.4	34
72.42	27
72.44	24
72.46	25
72.48	33
72.5	32
72.52	16
72.54	29
72.56	25
72.58	39
72.6	25
72.62	30
72.64	29
72.66	27
72.68	32
72.7	32
72.72	32
72.74	30
72.76	25
72.78	24
72.8	36
72.82	30
72.84	22
72.86	24
72.88	27
72.9	18
72.92	22
72.94	22
72.96	26
72.98	29
73	28
73.02	28
73.04	19
73.06	23
73.08	25
73.1	26
73.12	32
73.14	28
73.16	18
73.18	25
73.2	30
73.22	24
73.24	35
73.26	38
73.28	39
73.3	28
73.32	29
73.34	39
73.36	28
73.38	23
73.4	26
73.42	27
73.44	21
73.46	28
73.48	42
73.5	28
73.52	34
73.54	36
73.56	24
73.58	32
73.6	35
73.62	39
73.64	25
73.66	26
73.68	45
73.7	31
73.72	28
73.74	48
73.76	47
73.78	51
73.8	50
73.82	43
73.84	61
73.86	69
73.88	65
73.9	77
73.92	83
73.94	80
73.96	86
73.98	102
74	100
74.02	87
74.04	109
74.06	137
74.08	127
74.1	125
74.12	164
74.14	155
74.16	156
74.18	183
74.2	177
74.22	163
74.24	173
74.26	209
74.28	202
74.3	171
74.32	222
74.34	181
74.36	168
74.38	180
74.4	159
74.42	159
74.44	159
74.46	130
74.48	131
74.5	140
74.52	105
74.54	115
74.56	110
74.58	89
74.6	94
74.62	70
74.64	68
74.66	82
74.68	75
74.7	44
74.72	45
74.74	40
74.76	50
74.78	40
74.8	32
74.82	50
74.84	37
74.86	36
74.88	46
74.9	38
74.92	28
74.94	29
74.96	38
74.98	24
75	32
75.02	31
75.04	35
75.06	24
75.08	31
75.1	29
75.12	34
75.14	32
75.16	23
75.18	23
75.2	30
75.22	23
75.24	28
75.26	28
75.28	35
75.3	30
75.32	30
75.34	36
75.36	29
75.38	31
75.4	31
75.42	23
75.44	30
75.46	36
75.48	35
75.5	29
75.52	34
75.54	33
75.56	36
75.58	23
75.6	39
75.62	35
75.64	31
75.66	23
75.68	18
75.7	31
75.72	40
75.74	28
75.76	27
75.78	31
75.8	18
75.82	26
75.84	26
75.86	25
75.88	39
75.9	30
75.92	22
75.94	24
75.96	25
75.98	22
76	33
76.02	28
76.04	27
76.06	32
76.08	31
76.1	17
76.12	28
76.14	28
76.16	22
76.18	31
76.2	37
76.22	27
76.24	23
76.26	23
76.28	21
76.3	20
76.32	20
76.34	23
76.36	31
76.38	25
76.4	23
76.42	26
76.44	33
76.46	23
76.48	26
76.5	30
76.52	30
76.54	20
76.56	35
76.58	24
76.6	34
76.62	27
76.64	29
76.66	20
76.68	27
76.7	31
76.72	37
76.74	25
76.76	27
76.78	27
76.8	20
76.82	18
76.84	28
76.86	22
76.88	35
76.9	21
76.92	29
76.94	31
76.96	18
76.98	25
77	31
77.02	27
77.04	32
77.06	27
77.08	24
77.1	22
77.12	15
77.14	30
77.16	33
77.18	29
77.2	17
77.22	28
77.24	35
77.26	24
77.28	23
77.3	25
77.32	21
77.34	30
77.36	27
77.38	41
77.4	25
77.42	31
77.44	27
77.46	33
77.48	19
77.5	36
77.52	29
77.54	28
77.56	35
77.58	23
77.6	26
77.62	27
77.64	30
77.66	27
77.68	23
77.7	20
77.72	28
77.74	27
77.76	20
77.78	21
77.8	29
77.82	26
77.84	25
77.86	40
77.88	19
77.9	34
77.92	38
77.94	20
77.96	16
77.98	32
78	23
78.02	16
78.04	23
78.06	25
78.08	25
78.1	23
78.12	21
78.14	29
78.16	20
78.18	25
78.2	28
78.22	32
78.24	27
78.26	18
78.28	25
78.3	35
78.32	40
78.34	36
78.36	25
78.38	20
78.4	26
78.42	18
78.44	19
78.46	25
78.48	35
78.5	25
78.52	30
78.54	27
78.56	19
78.58	20
78.6	25
78.62	32
78.64	23
78.66	21
78.68	27
78.7	28
78.72	26
78.74	23
78.76	22
78.78	24
78.8	33
78.82	34
78.84	26
78.86	28
78.88	34
78.9	25
78.92	21
78.94	31
78.96	26
78.98	27
79	28
79.02	28
79.04	24
79.06	26
79.08	25
79.1	29
79.12	28
79.14	28
79.16	26
79.18	27
79.2	23
79.22	24
79.24	31
79.26	24
79.28	31
79.3	27
79.32	34
79.34	38
79.36	19
79.38	24
79.4	27
79.42	26
79.44	26
79.46	31
79.48	29
79.5	34
79.52	16
79.54	28
79.56	21
79.58	26
79.6	24
79.62	33
79.64	18
79.66	19
79.68	33
79.7	30
79.72	31
79.74	38
79.76	25
79.78	33
79.8	23
79.82	28
79.84	33
79.86	32
79.88	35
79.9	42
79.92	32
79.94	38
79.96	32
79.98	32
80	28
80.02	32
80.04	21
80.06	29
80.08	34
80.1	23
80.12	34
80.14	30
80.16	28
80.18	33
80.2	32
80.22	23
80.24	21
80.26	32
80.28	29
80.3	27
80.32	32
80.34	33
80.36	27
80.38	23
80.4	27
80.42	28
80.44	23
80.46	30
80.48	28
80.5	20
80.52	30
80.54	23
80.56	22
80.58	25
80.6	26
80.62	35
80.64	21
80.66	16
80.68	31
80.7	23
80.72	27
80.74	28
80.76	28
80.78	29
80.8	21
80.82	29
80.84	35
80.86	34
80.88	17
80.9	28
80.92	24
80.94	20
80.96	23
80.98	35
81	34
81.02	23
81.04	18
81.06	28
81.08	39
81.1	24
81.12	27
81.14	27
81.16	24
81.18	29
81.2	27
81.22	34
81.24	24
81.26	26
81.28	30
81.3	35
81.32	27
81.34	26
81.36	35
81.38	31
81.4	34
81.42	20
81.44	32
81.46	33
81.48	32
81.5	41
81.52	26
81.54	26
81.56	29
81.58	21
81.6	30
81.62	31
81.64	31
81.66	30
81.68	19
81.7	25
81.72	19
81.74	22
81.76	29
81.78	26
81.8	25
81.82	31
81.84	25
81.86	24
81.88	36
81.9	23
81.92	17
81.94	29
81.96	15
81.98	35
82	29
82.02	28
82.04	28
82.06	26
82.08	35
82.1	26
82.12	25
82.14	26
82.16	27
82.18	31
82.2	30
82.22	36
82.24	36
82.26	36
82.28	25
82.3	29
82.32	26
82.34	21
82.36	30
82.38	32
82.4	20
82.42	26
82.44	23
82.46	25
82.48	34
82.5	35
82.52	30
82.54	28
82.56	27
82.58	33
82.6	33
82.62	17
82.64	17
82.66	41
82.68	34
82.7	27
82.72	22
82.74	24
82.76	27
82.78	26
82.8	33
82.82	30
82.84	29
82.86	27
82.88	28
82.9	30
82.92	37
82.94	33
82.96	29
82.98	33
83	24
83.02	30
83.04	24
83.06	37
83.08	28
83.1	26
83.12	30
83.14	30
83.16	34
83.18	29
83.2	31
83.22	36
83.24	21
83.26	25
83.28	18
83.3	30
83.32	23
83.34	22
83.36	24
83.38	27
83.4	27
83.42	31
83.44	33
83.46	40
83.48	35
83.5	28
83.52	28
83.54	28
83.56	32
83.58	34
83.6	37
83.62	26
83.64	23
83.66	29
83.68	24
83.7	30
83.72	30
83.74	27
83.76	37
83.78	20
83.8	32
83.82	32
83.84	26
83.86	27
83.88	32
83.9	21
83.92	47
83.94	29
83.96	25
83.98	23
84	32
84.02	24
84.04	23
84.06	20
84.08	32
84.1	25
84.12	22
84.14	32
84.16	32
84.18	30
84.2	35
84.22	23
84.24	24
84.26	40
84.28	29
84.3	26
84.32	35
84.34	20
84.36	28
84.38	32
84.4	29
84.42	26
84.44	33
84.46	23
84.48	23
84.5	29
84.52	35
84.54	23
84.56	28
84.58	28
84.6	24
84.62	22
84.64	34
84.66	25
84.68	35
84.7	25
84.72	31
84.74	26
84.76	30
84.78	32
84.8	25
84.82	35
84.84	30
84.86	23
84.88	38
84.9	25
84.92	29
84.94	33
84.96	48
84.98	29
85	26
85.02	26
85.04	22
85.06	22
85.08	38
85.1	25
85.12	28
85.14	31
85.16	27
85.18	23
85.2	28
85.22	28
85.24	29
85.26	24
85.28	30
85.3	27
85.32	27
85.34	30
85.36	38
85.38	26
85.4	25
85.42	25
85.44	21
85.46	24
85.48	23
85.5	28
85.52	20
85.54	27
85.56	27
85.58	28
85.6	29
85.62	24
85.64	34
85.66	40
85.68	25
85.7	30
85.72	20
85.74	29
85.76	18
85.78	24
85.8	27
85.82	26
85.84	27
85.86	43
85.88	31
85.9	33
85.92	30
85.94	28
85.96	30
85.98	29
86	31
86.02	16
86.04	18
86.06	26
86.08	26
86.1	26
86.12	23
86.14	28
86.16	28
86.18	34
86.2	30
86.22	27
86.24	33
86.26	27
86.28	15
86.3	32
86.32	36
86.34	36
86.36	27
86.38	26
86.4	38
86.42	27
86.44	26
86.46	23
86.48	32
86.5	23
86.52	35
86.54	28
86.56	29
86.58	18
86.6	33
86.62	21
86.64	28
86.66	37
86.68	32
86.7	34
86.72	22
86.74	38
86.76	33
86.78	24
86.8	27
86.82	24
86.84	27
86.86	25
86.88	28
86.9	32
86.92	31
86.94	30
86.96	18
86.98	34
87	28
87.02	39
87.04	35
87.06	29
87.08	29
87.1	17
87.12	25
87.14	26
87.16	37
87.18	29
87.2	25
87.22	31
87.24	30
87.26	26
87.28	27
87.3	25
87.32	31
87.34	30
87.36	34
87.38	32
87.4	21
87.42	34
87.44	27
87.46	30
87.48	26
87.5	23
87.52	26
87.54	29
87.56	33
87.58	37
87.6	26
87.62	32
87.64	28
87.66	28
87.68	21
87.7	30
87.72	23
87.74	27
87.76	20
87.78	31
87.8	33
87.82	35
87.84	25
87.86	24
87.88	22
87.9	33
87.92	31
87.94	22
87.96	38
87.98	27
88	30
88.02	32
88.04	26
88.06	34
88.08	23
88.1	24
88.12	35
88.14	29
88.16	25
88.18	36
88.2	36
88.22	30
88.24	35
88.26	36
88.28	36
88.3	25
88.32	39
88.34	22
88.36	27
88.38	26
88.4	23
88.42	31
88.44	35
88.46	26
88.48	29
88.5	24
88.52	27
88.54	37
88.56	34
88.58	31
88.6	29
88.62	33
88.64	24
88.66	38
88.68	31
88.7	46
88.72	26
88.74	33
88.76	26
88.78	27
88.8	30
88.82	27
88.84	18
88.86	31
88.88	30
88.9	36
88.92	36
88.94	32
88.96	35
88.98	30
89	21
89.02	39
89.04	34
89.06	26
89.08	37
89.1	31
89.12	29
89.14	36
89.16	30
89.18	33
89.2	31
89.22	26
89.24	26
89.26	40
89.28	39
89.3	27
89.32	28
89.34	50
89.36	48
89.38	40
89.4	42
89.42	38
89.44	39
89.46	36
89.48	43
89.5	39
89.52	46
89.54	39
89.56	51
89.58	43
89.6	46
89.62	40
89.64	45
89.66	55
89.68	71
89.7	50
89.72	64
89.74	57
89.76	78
89.78	59
89.8	64
89.82	73
89.84	55
89.86	63
89.88	88
89.9	76
89.92	72
89.94	86
89.96	86
89.98	87
90	93
90.02	97
90.04	88
90.06	94
90.08	99
90.1	102
90.12	114
90.14	84
90.16	83
90.18	102
90.2	88
90.22	81
90.24	91
90.26	78
90.28	70
90.3	86
90.32	81
90.34	65
90.36	67
90.38	61
90.4	68
90.42	67
90.44	47
90.46	67
90.48	51
90.5	57
90.52	50
90.54	51
90.56	42
90.58	51
90.6	43
90.62	39
90.64	42
90.66	46
90.68	44
90.7	35
90.72	32
90.74	34
90.76	34
90.78	42
90.8	25
90.82	40
90.84	37
90.86	33
90.88	33
90.9	30
90.92	31
90.94	34
90.96	33
90.98	29
91	39
91.02	36
91.04	33
91.06	27
91.08	32
91.1	25
91.12	29
91.14	25
91.16	43
91.18	22
91.2	27
91.22	33
91.24	31
91.26	36
91.28	19
91.3	35
91.32	36
91.34	26
91.36	29
91.38	29
91.4	36
91.42	27
91.44	23
91.46	30
91.48	31
91.5	32
91.52	26
91.54	40
91.56	39
91.58	32
91.6	26
91.62	28
91.64	37
91.66	32
91.68	28
91.7	36
91.72	24
91.74	25
91.76	40
91.78	23
91.8	29
91.82	26
91.84	36
91.86	35
91.88	23
91.9	31
91.92	32
91.94	39
91.96	27
91.98	28
92	20
92.02	34
92.04	29
92.06	42
92.08	35
92.1	19
92.12	24
92.14	23
92.16	33
92.18	36
92.2	29
92.22	35
92.24	33
92.26	36
92.28	21
92.3	32
92.32	33
92.34	38
92.36	33
92.38	26
92.4	25
92.42	23
92.44	26
92.46	35
92.48	22
92.5	25
92.52	26
92.54	26
92.56	40
92.58	25
92.6	33
92.62	29
92.64	28
92.66	33
92.68	30
92.7	34
92.72	34
92.74	32
92.76	28
92.78	33
92.8	26
92.82	29
92.84	44
92.86	27
92.88	25
92.9	25
92.92	26
92.94	34
92.96	37
92.98	33
93	27
93.02	31
93.04	24
93.06	20
93.08	34
93.1	37
93.12	26
93.14	33
93.16	30
93.18	29
93.2	44
93.22	35
93.24	28
93.26	26
93.28	34
93.3	39
93.32	33
93.34	27
93.36	23
93.38	31
93.4	33
93.42	32
93.44	36
93.46	39
93.48	24
93.5	29
93.52	32
93.54	32
93.56	34
93.58	29
93.6	30
93.62	37
93.64	34
93.66	33
93.68	31
93.7	24
93.72	34
93.74	20
93.76	34
93.78	31
93.8	27
93.82	28
93.84	26
93.86	26
93.88	25
93.9	41
93.92	31
93.94	31
93.96	34
93.98	22
94	31
94.02	35
94.04	27
94.06	24
94.08	28
94.1	27
94.12	32
94.14	28
94.16	25
94.18	34
94.2	27
94.22	31
94.24	38
94.26	24
94.28	31
94.3	25
94.32	29
94.34	20
94.36	29
94.38	38
94.4	21
94.42	31
94.44	29
94.46	26
94.48	32
94.5	42
94.52	43
94.54	29
94.56	29
94.58	30
94.6	27
94.62	24
94.64	22
94.66	22
94.68	39
94.7	35
94.72	29
94.74	36
94.76	29
94.78	28
94.8	33
94.82	40
94.84	29
94.86	20
94.88	25
94.9	39
94.92	36
94.94	33
94.96	35
94.98	30
95	22
95.02	25
95.04	27
95.06	25
95.08	32
95.1	30
95.12	41
95.14	28
95.16	30
95.18	35
95.2	34
95.22	25
95.24	25
95.26	33
95.28	30
95.3	36
95.32	27
95.34	42
95.36	37
95.38	42
95.4	31
95.42	43
95.44	36
95.46	27
95.48	39
95.5	24
95.52	27
95.54	44
95.56	35
95.58	26
95.6	28
95.62	30
95.64	34
95.66	34
95.68	32
95.7	44
95.72	36
95.74	25
95.76	26
95.78	31
95.8	28
95.82	37
95.84	27
95.86	36
95.88	26
95.9	27
95.92	31
95.94	34
95.96	18
95.98	39
96	29
96.02	23
96.04	41
96.06	36
96.08	35
96.1	37
96.12	31
96.14	34
96.16	40
96.18	29
96.2	27
96.22	37
96.24	43
96.26	30
96.28	34
96.3	33
96.32	27
96.34	24
96.36	39
96.38	32
96.4	43
96.42	29
96.44	32
96.46	45
96.48	26
96.5	31
96.52	30
96.54	31
96.56	31
96.58	29
96.6	28
96.62	22
96.64	35
96.66	30
96.68	27
96.7	39
96.72	34
96.74	34
96.76	24
96.78	27
96.8	27
96.82	26
96.84	39
96.86	33
96.88	30
96.9	32
96.92	40
96.94	23
96.96	28
96.98	32
97	26
97.02	33
97.04	22
97.06	28
97.08	29
97.1	40
97.12	21
97.14	29
97.16	28
97.18	28
97.2	26
97.22	36
97.24	26
97.26	27
97.28	30
97.3	36
97.32	26
97.34	39
97.36	19
97.38	36
97.4	25
97.42	36
97.44	34
97.46	27
97.48	26
97.5	25
97.52	36
97.54	29
97.56	41
97.58	29
97.6	40
97.62	38
97.64	29
97.66	24
97.68	37
97.7	25
97.72	28
97.74	30
97.76	32
97.78	28
97.8	34
97.82	36
97.84	27
97.86	42
97.88	34
97.9	46
97.92	34
97.94	32
97.96	31
97.98	28
98	31
98.02	31
98.04	31
98.06	38
98.08	23
98.1	30
98.12	33
98.14	31
98.16	33
98.18	39
98.2	32
98.22	35
98.24	33
98.26	28
98.28	26
98.3	27
98.32	31
98.34	28
98.36	33
98.38	27
98.4	35
98.42	30
98.44	28
98.46	42
98.48	33
98.5	34
98.52	21
98.54	23
98.56	30
98.58	35
98.6	28
98.62	21
98.64	28
98.66	35
98.68	32
98.7	39
98.72	25
98.74	28
98.76	34
98.78	29
98.8	35
98.82	23
98.84	22
98.86	23
98.88	43
98.9	27
98.92	36
98.94	33
98.96	39
98.98	32
99	26
99.02	31
99.04	32
99.06	42
99.08	39
99.1	34
99.12	19
99.14	34
99.16	24
99.18	33
99.2	29
99.22	43
99.24	34
99.26	32
99.28	37
99.3	46
99.32	29
99.34	39
99.36	34
99.38	29
99.4	31
99.42	31
99.44	27
99.46	36
99.48	32
99.5	30
99.52	34
99.54	43
99.56	34
99.58	33
99.6	30
99.62	32
99.64	29
99.66	34
99.68	30
99.7	28
99.72	26
99.74	24
99.76	42
99.78	32
99.8	28
99.82	32
99.84	27
99.86	30
99.88	37
99.9	34
99.92	32
99.94	34
99.96	28
99.98	26
100	19
